timestamp,ecg_value
0,653
0.00400080016003201,0
0.00800160032006401,653
0.012002400480096,652
0.016003200640128,0
0.02000400080016,652
0.024004800960192,558
0.028005601120224,653
0.0320064012802561,0
0.0360072014402881,0
0.0400080016003201,653
0.0440088017603521,0
0.0480096019203841,653
0.0520104020804161,653
0.0560112022404481,650
0.0600120024004801,653
0.0640128025605121,0
0.0680136027205441,653
0.0720144028805761,652
0.0760152030406081,652
0.0800160032006401,0
0.0840168033606721,652
0.0880176035207042,652
0.0920184036807362,0
0.0960192038407682,0
0.1000200040008,653
0.104020804160832,0
0.108021604320864,0
0.112022404480896,653
0.116023204640928,0
0.12002400480096,0
0.124024804960992,104
0.128025605121024,652
0.132026405281056,612
0.136027205441088,0
0.14002800560112,0
0.144028805761152,652
0.148029605921184,652
0.152030406081216,652
0.156031206241248,652
0.16003200640128,0
0.164032806561312,592
0.168033606721344,0
0.172034406881376,652
0.176035207041408,652
0.18003600720144,0
0.184036807361472,652
0.188037607521504,0
0.192038407681536,652
0.196039207841568,652
0.2000400080016,652
0.204040808161632,652
0.208041608321664,652
0.212042408481696,0
0.216043208641728,0
0.22004400880176,652
0.224044808961792,651
0.228045609121824,653
0.232046409281856,0
0.236047209441888,652
0.24004800960192,0
0.244048809761952,652
0.248049609921984,652
0.252050410082016,0
0.256051210242048,652
0.26005201040208,0
0.264052810562112,652
0.268053610722145,652
0.272054410882176,0
0.276055211042208,652
0.28005601120224,652
0.284056811362273,652
0.288057611522305,651
0.292058411682337,0
0.296059211842369,0
0.300060012002401,652
0.304060812162433,653
0.308061612322465,652
0.312062412482497,0
0.316063212642529,0
0.320064012802561,653
0.324064812962593,652
0.328065613122625,651
0.332066413282657,0
0.336067213442689,0
0.340068013602721,652
0.344068813762753,122
0.348069613922785,652
0.352070414082817,652
0.356071214242849,0
0.360072014402881,0
0.364072814562913,652
0.368073614722945,0
0.372074414882977,652
0.376075215043009,652
0.380076015203041,0
0.384076815363073,652
0.388077615523105,0
0.392078415683137,652
0.396079215843169,652
0.400080016003201,526
0.404080816163233,0
0.408081616323265,652
0.412082416483297,652
0.416083216643329,652
0.420084016803361,652
0.424084816963393,0
0.428085617123425,0
0.432086417283457,0
0.436087217443489,651
0.440088017603521,652
0.444088817763553,0
0.448089617923585,652
0.452090418083617,0
0.456091218243649,0
0.460092018403681,0
0.464092818563713,652
0.468093618723745,651
0.472094418883777,652
0.476095219043809,652
0.480096019203841,652
0.484096819363873,0
0.488097619523905,652
0.492098419683937,652
0.496099219843969,652
0.500100020004001,0
0.504100820164033,652
0.508101620324065,651
0.512102420484097,652
0.516103220644129,0
0.520104020804161,652
0.524104820964193,0
0.528105621124225,0
0.532106421284257,652
0.536107221444289,652
0.540108021604321,0
0.544108821764353,652
0.548109621924385,0
0.552110422084417,652
0.556111222244449,652
0.560112022404481,0
0.564112822564513,652
0.568113622724545,652
0.572114422884577,652
0.576115223044609,0
0.580116023204641,0
0.584116823364673,652
0.588117623524705,0
0.592118423684737,650
0.596119223844769,652
0.600120024004801,652
0.604120824164833,0
0.608121624324865,652
0.612122424484897,0
0.616123224644929,0
0.620124024804961,652
0.624124824964993,514
0.628125625125025,0
0.632126425285057,0
0.636127225445089,652
0.640128025605121,0
0.644128825765153,0
0.648129625925185,0
0.652130426085217,0
0.656131226245249,0
0.660132026405281,652
0.664132826565313,652
0.668133626725345,0
0.672134426885377,0
0.676135227045409,652
0.680136027205441,651
0.684136827365473,104
0.688137627525505,652
0.692138427685537,0
0.696139227845569,0
0.700140028005601,0
0.704140828165633,652
0.708141628325665,0
0.712142428485697,652
0.716143228645729,0
0.720144028805761,0
0.724144828965793,0
0.728145629125825,652
0.732146429285857,649
0.736147229445889,652
0.740148029605921,0
0.744148829765953,0
0.748149629925985,0
0.752150430086017,652
0.756151230246049,652
0.760152030406081,0
0.764152830566113,0
0.768153630726145,0
0.772154430886177,0
0.776155231046209,0
0.780156031206241,0
0.784156831366273,652
0.788157631526305,652
0.792158431686337,0
0.796159231846369,652
0.800160032006401,652
0.804160832166433,652
0.808161632326465,652
0.812162432486497,0
0.816163232646529,652
0.820164032806561,652
0.824164832966593,0
0.828165633126625,0
0.832166433286657,0
0.836167233446689,652
0.840168033606721,0
0.844168833766753,0
0.848169633926785,647
0.852170434086817,651
0.856171234246849,652
0.860172034406881,0
0.864172834566913,646
0.868173634726945,652
0.872174434886977,0
0.876175235047009,0
0.880176035207042,0
0.884176835367073,652
0.888177635527105,0
0.892178435687137,652
0.896179235847169,0
0.900180036007201,0
0.904180836167233,0
0.908181636327266,0
0.912182436487298,0
0.91618323664733,652
0.920184036807362,0
0.924184836967394,0
0.928185637127426,0
0.932186437287458,652
0.93618723744749,652
0.940188037607522,0
0.944188837767554,651
0.948189637927586,652
0.952190438087618,652
0.95619123824765,652
0.960192038407682,652
0.964192838567714,0
0.968193638727746,652
0.972194438887778,652
0.97619523904781,0
0.980196039207842,0
0.984196839367874,0
0.988197639527906,0
0.992198439687938,652
0.99619923984797,0
1.000200040008,652
1.00420084016803,652
1.00820164032807,652
1.0122024404881,652
1.01620324064813,652
1.02020404080816,651
1.02420484096819,652
1.02820564112823,652
1.03220644128826,100
1.03620724144829,652
1.04020804160832,652
1.04420884176835,652
1.04820964192839,652
1.05221044208842,651
1.05621124224845,652
1.06021204240848,652
1.06421284256851,652
1.06821364272855,0
1.07221444288858,0
1.07621524304861,0
1.08021604320864,0
1.08421684336867,651
1.08821764352871,0
1.09221844368874,0
1.09621924384877,0
1.1002200440088,652
1.10422084416883,652
1.10822164432887,109
1.1122224444889,0
1.11622324464893,652
1.12022404480896,0
1.12422484496899,651
1.12822564512903,0
1.13222644528906,0
1.13622724544909,0
1.14022804560912,652
1.14422884576915,533
1.14822964592919,652
1.15223044608922,0
1.15623124624925,0
1.16023204640928,652
1.16423284656931,652
1.16823364672935,652
1.17223444688938,652
1.17623524704941,652
1.18023604720944,0
1.18423684736947,651
1.18823764752951,652
1.19223844768954,0
1.19623924784957,0
1.2002400480096,652
1.20424084816963,0
1.20824164832967,0
1.2122424484897,652
1.21624324864973,652
1.22024404880976,652
1.22424484896979,472
1.22824564912983,651
1.23224644928986,652
1.23624724944989,571
1.24024804960992,652
1.24424884976995,0
1.24824964992999,0
1.25225045009002,651
1.25625125025005,652
1.26025205041008,651
1.26425285057011,0
1.26825365073015,0
1.27225445089018,651
1.27625525105021,640
1.28025605121024,652
1.28425685137027,0
1.28825765153031,238
1.29225845169034,0
1.29625925185037,0
1.3002600520104,650
1.30426085217043,652
1.30826165233047,652
1.3122624524905,0
1.31626325265053,0
1.32026405281056,652
1.32426485297059,652
1.32826565313063,652
1.33226645329066,0
1.33626725345069,0
1.34026805361072,568
1.34426885377075,652
1.34826965393079,651
1.35227045409082,291
1.35627125425085,0
1.36027205441088,652
1.36427285457091,652
1.36827365473095,652
1.37227445489098,652
1.37627525505101,0
1.38027605521104,0
1.38427685537107,652
1.38827765553111,652
1.39227845569114,417
1.39627925585117,651
1.4002800560112,0
1.40428085617123,651
1.40828165633127,651
1.4122824564913,652
1.41628325665133,652
1.42028405681136,652
1.42428485697139,652
1.42828565713143,652
1.43228645729146,652
1.43628725745149,651
1.44028805761152,0
1.44428885777155,0
1.44828965793159,0
1.45229045809162,651
1.45629125825165,652
1.46029205841168,651
1.46429285857171,0
1.46829365873175,0
1.47229445889178,0
1.47629525905181,0
1.48029605921184,652
1.48429685937187,0
1.48829765953191,651
1.49229845969194,651
1.49629925985197,0
1.500300060012,0
1.50430086017203,0
1.50830166033207,0
1.5123024604921,0
1.51630326065213,652
1.52030406081216,651
1.5243048609722,652
1.52830566113223,0
1.53230646129226,0
1.53630726145229,0
1.54030806161232,652
1.54430886177235,0
1.54830966193239,651
1.55231046209242,652
1.55631126225245,651
1.56031206241248,0
1.56431286257251,652
1.56831366273255,652
1.57231446289258,0
1.57631526305261,0
1.58031606321264,0
1.58431686337268,652
1.58831766353271,652
1.59231846369274,649
1.59631926385277,652
1.6003200640128,650
1.60432086417284,652
1.60832166433287,246
1.6123224644929,0
1.61632326465293,0
1.62032406481296,0
1.624324864973,0
1.62832566513303,652
1.63232646529306,652
1.63632726545309,649
1.64032806561312,428
1.64432886577316,0
1.64832966593319,0
1.65233046609322,650
1.65633126625325,651
1.66033206641328,651
1.66433286657332,0
1.66833366673335,0
1.67233446689338,0
1.67633526705341,0
1.68033606721344,0
1.68433686737348,652
1.68833766753351,651
1.69233846769354,651
1.69633926785357,0
1.7003400680136,652
1.70434086817364,652
1.70834166833367,651
1.7123424684937,0
1.71634326865373,0
1.72034406881376,652
1.7243448689738,651
1.72834566913383,0
1.73234646929386,0
1.73634726945389,651
1.74034806961392,651
1.74434886977396,0
1.74834966993399,651
1.75235047009402,651
1.75635127025405,651
1.76035207041408,650
1.76435287057412,652
1.76835367073415,652
1.77235447089418,651
1.77635527105421,652
1.78035607121424,652
1.78435687137428,651
1.78835767153431,652
1.79235847169434,652
1.79635927185437,0
1.8003600720144,0
1.80436087217444,652
1.80836167233447,652
1.8123624724945,652
1.81636327265453,651
1.82036407281456,652
1.8243648729746,92
1.82836567313463,652
1.83236647329466,653
1.83636727345469,652
1.84036807361472,652
1.84436887377476,652
1.84836967393479,0
1.85237047409482,0
1.85637127425485,0
1.86037207441488,652
1.86437287457492,2
1.86837367473495,652
1.87237447489498,652
1.87637527505501,0
1.88037607521504,0
1.88437687537508,0
1.88837767553511,0
1.89237847569514,652
1.89637927585517,652
1.9003800760152,0
1.90438087617524,652
1.90838167633527,652
1.9123824764953,407
1.91638327665533,652
1.92038407681536,0
1.9243848769754,0
1.92838567713543,0
1.93238647729546,652
1.93638727745549,652
1.94038807761552,650
1.94438887777556,652
1.94838967793559,0
1.95239047809562,0
1.95639127825565,0
1.96039207841568,652
1.96439287857572,652
1.96839367873575,0
1.97239447889578,652
1.97639527905581,651
1.98039607921584,652
1.98439687937588,652
1.98839767953591,653
1.99239847969594,0
1.99639927985597,652
2.000400080016,518
2.00440088017604,652
2.00840168033607,651
2.0124024804961,652
2.01640328065613,0
2.02040408081616,651
2.0244048809762,652
2.02840568113623,651
2.03240648129626,0
2.03640728145629,0
2.04040808161632,0
2.04440888177636,35
2.04840968193639,0
2.05241048209642,0
2.05641128225645,0
2.06041208241648,0
2.06441288257652,0
2.06841368273655,0
2.07241448289658,0
2.07641528305661,0
2.08041608321664,0
2.08441688337668,0
2.08841768353671,0
2.09241848369674,0
2.09641928385677,0
2.1004200840168,0
2.10442088417684,0
2.10842168433687,0
2.1124224844969,0
2.11642328465693,0
2.12042408481696,0
2.124424884977,0
2.12842568513703,0
2.13242648529706,0
2.13642728545709,0
2.14042808561712,0
2.14442888577716,0
2.14842968593719,0
2.15243048609722,0
2.15643128625725,0
2.16043208641728,0
2.16443288657732,0
2.16843368673735,0
2.17243448689738,0
2.17643528705741,0
2.18043608721744,0
2.18443688737748,0
2.18843768753751,0
2.19243848769754,0
2.19643928785757,0
2.2004400880176,0
2.20444088817764,0
2.20844168833767,0
2.2124424884977,0
2.21644328865773,0
2.22044408881776,0
2.2244448889778,0
2.22844568913783,0
2.23244648929786,0
2.23644728945789,0
2.24044808961792,0
2.24444888977796,0
2.24844968993799,0
2.25245049009802,0
2.25645129025805,0
2.26045209041808,0
2.26445289057812,0
2.26845369073815,0
2.27245449089818,0
2.27645529105821,0
2.28045609121824,0
2.28445689137828,0
2.28845769153831,0
2.29245849169834,0
2.29645929185837,0
2.3004600920184,0
2.30446089217844,0
2.30846169233847,0
2.3124624924985,0
2.31646329265853,0
2.32046409281856,0
2.3244648929786,0
2.32846569313863,0
2.33246649329866,0
2.33646729345869,0
2.34046809361872,0
2.34446889377876,0
2.34846969393879,0
2.35247049409882,0
2.35647129425885,0
2.36047209441888,0
2.36447289457892,0
2.36847369473895,0
2.37247449489898,0
2.37647529505901,0
2.38047609521904,0
2.38447689537908,0
2.38847769553911,0
2.39247849569914,0
2.39647929585917,0
2.4004800960192,0
2.40448089617924,0
2.40848169633927,0
2.4124824964993,0
2.41648329665933,0
2.42048409681936,0
2.4244848969794,0
2.42848569713943,0
2.43248649729946,0
2.43648729745949,0
2.44048809761952,0
2.44448889777956,0
2.44848969793959,0
2.45249049809962,0
2.45649129825965,0
2.46049209841968,0
2.46449289857972,0
2.46849369873975,0
2.47249449889978,0
2.47649529905981,0
2.48049609921984,0
2.48449689937988,0
2.48849769953991,0
2.49249849969994,0
2.49649929985997,0
2.50050010002,0
2.50450090018004,0
2.50850170034007,0
2.5125025005001,0
2.51650330066013,0
2.52050410082016,0
2.5245049009802,0
2.52850570114023,0
2.53250650130026,0
2.53650730146029,0
2.54050810162032,0
2.54450890178036,0
2.54850970194039,0
2.55251050210042,0
2.55651130226045,0
2.56051210242048,0
2.56451290258052,0
2.56851370274055,0
2.57251450290058,0
2.57651530306061,0
2.58051610322064,0
2.58451690338068,0
2.58851770354071,0
2.59251850370074,0
2.59651930386077,0
2.6005201040208,0
2.60452090418084,0
2.60852170434087,0
2.6125225045009,0
2.61652330466093,0
2.62052410482096,0
2.624524904981,0
2.62852570514103,0
2.63252650530106,0
2.63652730546109,0
2.64052810562112,0
2.64452890578116,0
2.64852970594119,0
2.65253050610122,0
2.65653130626125,0
2.66053210642128,0
2.66453290658132,0
2.66853370674135,0
2.67253450690138,0
2.67653530706141,0
2.68053610722144,0
2.68453690738148,0
2.68853770754151,0
2.69253850770154,0
2.69653930786157,0
2.7005401080216,0
2.70454090818164,0
2.70854170834167,0
2.7125425085017,0
2.71654330866173,0
2.72054410882176,0
2.7245449089818,0
2.72854570914183,0
2.73254650930186,0
2.73654730946189,0
2.74054810962192,0
2.74454890978196,0
2.74854970994199,0
2.75255051010202,0
2.75655131026205,0
2.76055211042208,0
2.76455291058212,0
2.76855371074215,0
2.77255451090218,0
2.77655531106221,0
2.78055611122225,0
2.78455691138228,0
2.78855771154231,0
2.79255851170234,0
2.79655931186237,0
2.80056011202241,0
2.80456091218244,0
2.80856171234247,0
2.8125625125025,0
2.81656331266253,0
2.82056411282257,0
2.8245649129826,0
2.82856571314263,0
2.83256651330266,0
2.83656731346269,0
2.84056811362273,0
2.84456891378276,0
2.84856971394279,0
2.85257051410282,0
2.85657131426285,0
2.86057211442288,0
2.86457291458292,0
2.86857371474295,0
2.87257451490298,0
2.87657531506301,0
2.88057611522304,0
2.88457691538308,0
2.88857771554311,0
2.89257851570314,0
2.89657931586317,0
2.90058011602321,0
2.90458091618324,0
2.90858171634327,0
2.9125825165033,0
2.91658331666333,0
2.92058411682337,0
2.9245849169834,0
2.92858571714343,0
2.93258651730346,0
2.93658731746349,0
2.94058811762353,0
2.94458891778356,0
2.94858971794359,0
2.95259051810362,0
2.95659131826365,0
2.96059211842369,0
2.96459291858372,0
2.96859371874375,0
2.97259451890378,0
2.97659531906381,0
2.98059611922385,0
2.98459691938388,0
2.98859771954391,0
2.99259851970394,0
2.99659931986397,0
3.00060012002401,0
3.00460092018404,0
3.00860172034407,0
3.0126025205041,0
3.01660332066413,0
3.02060412082417,0
3.0246049209842,0
3.02860572114423,0
3.03260652130426,0
3.03660732146429,0
3.04060812162433,0
3.04460892178436,0
3.04860972194439,0
3.05261052210442,0
3.05661132226445,0
3.06061212242449,0
3.06461292258452,0
3.06861372274455,0
3.07261452290458,0
3.07661532306461,0
3.08061612322465,0
3.08461692338468,0
3.08861772354471,0
3.09261852370474,0
3.09661932386477,0
3.10062012402481,0
3.10462092418484,0
3.10862172434487,0
3.1126225245049,0
3.11662332466493,0
3.12062412482497,0
3.124624924985,0
3.12862572514503,0
3.13262652530506,0
3.13662732546509,0
3.14062812562513,0
3.14462892578516,0
3.14862972594519,0
3.15263052610522,0
3.15663132626525,0
3.16063212642529,0
3.16463292658532,0
3.16863372674535,0
3.17263452690538,0
3.17663532706541,0
3.18063612722545,0
3.18463692738548,0
3.18863772754551,0
3.19263852770554,0
3.19663932786557,0
3.20064012802561,0
3.20464092818564,0
3.20864172834567,0
3.2126425285057,0
3.21664332866573,0
3.22064412882577,0
3.2246449289858,0
3.22864572914583,0
3.23264652930586,0
3.23664732946589,0
3.24064812962593,0
3.24464892978596,0
3.24864972994599,0
3.25265053010602,0
3.25665133026605,0
3.26065213042609,0
3.26465293058612,0
3.26865373074615,0
3.27265453090618,0
3.27665533106621,0
3.28065613122625,0
3.28465693138628,0
3.28865773154631,0
3.29265853170634,0
3.29665933186637,0
3.30066013202641,0
3.30466093218644,0
3.30866173234647,0
3.3126625325065,0
3.31666333266653,0
3.32066413282657,0
3.3246649329866,0
3.32866573314663,0
3.33266653330666,0
3.33666733346669,0
3.34066813362673,0
3.34466893378676,0
3.34866973394679,0
3.35267053410682,0
3.35667133426685,0
3.36067213442689,0
3.36467293458692,0
3.36867373474695,0
3.37267453490698,0
3.37667533506701,0
3.38067613522705,0
3.38467693538708,0
3.38867773554711,0
3.39267853570714,0
3.39667933586717,0
3.40068013602721,0
3.40468093618724,0
3.40868173634727,0
3.4126825365073,0
3.41668333666733,0
3.42068413682737,0
3.4246849369874,0
3.42868573714743,0
3.43268653730746,0
3.43668733746749,0
3.44068813762753,0
3.44468893778756,0
3.44868973794759,0
3.45269053810762,0
3.45669133826765,0
3.46069213842769,0
3.46469293858772,0
3.46869373874775,0
3.47269453890778,0
3.47669533906781,0
3.48069613922785,0
3.48469693938788,0
3.48869773954791,0
3.49269853970794,0
3.49669933986797,0
3.50070014002801,0
3.50470094018804,0
3.50870174034807,0
3.5127025405081,0
3.51670334066813,0
3.52070414082817,0
3.5247049409882,0
3.52870574114823,0
3.53270654130826,0
3.53670734146829,0
3.54070814162833,0
3.54470894178836,0
3.54870974194839,0
3.55271054210842,0
3.55671134226845,0
3.56071214242849,0
3.56471294258852,0
3.56871374274855,0
3.57271454290858,0
3.57671534306861,0
3.58071614322865,0
3.58471694338868,0
3.58871774354871,0
3.59271854370874,0
3.59671934386877,0
3.60072014402881,0
3.60472094418884,0
3.60872174434887,0
3.6127225445089,0
3.61672334466893,0
3.62072414482897,0
3.624724944989,0
3.62872574514903,0
3.63272654530906,0
3.63672734546909,0
3.64072814562913,0
3.64472894578916,0
3.64872974594919,0
3.65273054610922,0
3.65673134626925,0
3.66073214642929,0
3.66473294658932,0
3.66873374674935,0
3.67273454690938,0
3.67673534706941,0
3.68073614722945,0
3.68473694738948,0
3.68873774754951,0
3.69273854770954,0
3.69673934786957,0
3.70074014802961,0
3.70474094818964,0
3.70874174834967,0
3.7127425485097,0
3.71674334866973,0
3.72074414882977,0
3.7247449489898,0
3.72874574914983,0
3.73274654930986,0
3.73674734946989,0
3.74074814962993,0
3.74474894978996,0
3.74874974994999,0
3.75275055011002,0
3.75675135027005,0
3.76075215043009,0
3.76475295059012,0
3.76875375075015,0
3.77275455091018,0
3.77675535107021,0
3.78075615123025,0
3.78475695139028,0
3.78875775155031,0
3.79275855171034,0
3.79675935187037,0
3.80076015203041,0
3.80476095219044,0
3.80876175235047,0
3.8127625525105,0
3.81676335267053,0
3.82076415283057,0
3.8247649529906,0
3.82876575315063,0
3.83276655331066,0
3.83676735347069,0
3.84076815363073,0
3.84476895379076,0
3.84876975395079,0
3.85277055411082,0
3.85677135427085,0
3.86077215443089,0
3.86477295459092,0
3.86877375475095,0
3.87277455491098,0
3.87677535507101,0
3.88077615523105,0
3.88477695539108,0
3.88877775555111,0
3.89277855571114,0
3.89677935587117,0
3.90078015603121,0
3.90478095619124,0
3.90878175635127,0
3.9127825565113,0
3.91678335667133,0
3.92078415683137,0
3.9247849569914,0
3.92878575715143,0
3.93278655731146,0
3.93678735747149,0
3.94078815763153,0
3.94478895779156,0
3.94878975795159,0
3.95279055811162,0
3.95679135827166,0
3.96079215843169,0
3.96479295859172,0
3.96879375875175,0
3.97279455891178,0
3.97679535907182,0
3.98079615923185,0
3.98479695939188,0
3.98879775955191,0
3.99279855971194,0
3.99679935987197,0
4.00080016003201,0
4.00480096019204,0
4.00880176035207,0
4.0128025605121,0
4.01680336067213,0
4.02080416083217,0
4.0248049609922,0
4.02880576115223,0
4.03280656131226,0
4.03680736147229,0
4.04080816163233,0
4.04480896179236,0
4.04880976195239,0
4.05281056211242,0
4.05681136227245,0
4.06081216243249,0
4.06481296259252,0
4.06881376275255,0
4.07281456291258,0
4.07681536307261,0
4.08081616323265,0
4.08481696339268,0
4.08881776355271,0
4.09281856371274,0
4.09681936387278,0
4.10082016403281,0
4.10482096419284,0
4.10882176435287,0
4.1128225645129,0
4.11682336467294,0
4.12082416483297,0
4.124824964993,0
4.12882576515303,0
4.13282656531306,0
4.1368273654731,0
4.14082816563313,0
4.14482896579316,0
4.14882976595319,0
4.15283056611322,0
4.15683136627326,0
4.16083216643329,0
4.16483296659332,0
4.16883376675335,0
4.17283456691338,0
4.17683536707342,0
4.18083616723345,0
4.18483696739348,0
4.18883776755351,0
4.19283856771354,0
4.19683936787358,0
4.20084016803361,0
4.20484096819364,0
4.20884176835367,0
4.2128425685137,0
4.21684336867374,0
4.22084416883377,0
4.2248449689938,0
4.22884576915383,0
4.23284656931386,0
4.2368473694739,0
4.24084816963393,0
4.24484896979396,0
4.24884976995399,0
4.25285057011402,0
4.25685137027406,0
4.26085217043409,0
4.26485297059412,0
4.26885377075415,0
4.27285457091418,0
4.27685537107422,0
4.28085617123425,0
4.28485697139428,0
4.28885777155431,0
4.29285857171434,0
4.29685937187438,0
4.30086017203441,0
4.30486097219444,0
4.30886177235447,0
4.3128625725145,0
4.31686337267454,0
4.32086417283457,0
4.3248649729946,0
4.32886577315463,0
4.33286657331466,0
4.3368673734747,0
4.34086817363473,0
4.34486897379476,0
4.34886977395479,0
4.35287057411482,0
4.35687137427486,0
4.36087217443489,0
4.36487297459492,0
4.36887377475495,0
4.37287457491498,0
4.37687537507502,0
4.38087617523505,0
4.38487697539508,0
4.38887777555511,0
4.39287857571514,0
4.39687937587518,0
4.40088017603521,0
4.40488097619524,0
4.40888177635527,0
4.4128825765153,0
4.41688337667534,0
4.42088417683537,0
4.4248849769954,0
4.42888577715543,0
4.43288657731546,0
4.4368873774755,0
4.44088817763553,0
4.44488897779556,0
4.44888977795559,0
4.45289057811562,0
4.45689137827566,0
4.46089217843569,0
4.46489297859572,0
4.46889377875575,0
4.47289457891578,0
4.47689537907582,0
4.48089617923585,0
4.48489697939588,0
4.48889777955591,0
4.49289857971594,0
4.49689937987598,0
4.50090018003601,0
4.50490098019604,0
4.50890178035607,0
4.5129025805161,0
4.51690338067614,0
4.52090418083617,0
4.5249049809962,0
4.52890578115623,0
4.53290658131626,0
4.5369073814763,0
4.54090818163633,0
4.54490898179636,0
4.54890978195639,0
4.55291058211642,0
4.55691138227646,0
4.56091218243649,0
4.56491298259652,0
4.56891378275655,0
4.57291458291658,0
4.57691538307662,0
4.58091618323665,0
4.58491698339668,0
4.58891778355671,0
4.59291858371674,0
4.59691938387678,0
4.60092018403681,0
4.60492098419684,0
4.60892178435687,0
4.6129225845169,0
4.61692338467694,0
4.62092418483697,0
4.624924984997,0
4.62892578515703,0
4.63292658531706,0
4.6369273854771,0
4.64092818563713,0
4.64492898579716,0
4.64892978595719,0
4.65293058611722,0
4.65693138627726,0
4.66093218643729,0
4.66493298659732,0
4.66893378675735,0
4.67293458691738,0
4.67693538707742,0
4.68093618723745,0
4.68493698739748,0
4.68893778755751,0
4.69293858771754,0
4.69693938787758,0
4.70094018803761,0
4.70494098819764,0
4.70894178835767,0
4.7129425885177,0
4.71694338867774,0
4.72094418883777,0
4.7249449889978,0
4.72894578915783,0
4.73294658931786,0
4.7369473894779,0
4.74094818963793,0
4.74494898979796,0
4.74894978995799,0
4.75295059011802,0
4.75695139027806,0
4.76095219043809,0
4.76495299059812,0
4.76895379075815,0
4.77295459091818,0
4.77695539107822,0
4.78095619123825,0
4.78495699139828,0
4.78895779155831,0
4.79295859171834,0
4.79695939187838,0
4.80096019203841,0
4.80496099219844,0
4.80896179235847,0
4.8129625925185,0
4.81696339267854,0
4.82096419283857,0
4.8249649929986,0
4.82896579315863,0
4.83296659331866,0
4.8369673934787,0
4.84096819363873,0
4.84496899379876,0
4.84896979395879,0
4.85297059411882,0
4.85697139427886,0
4.86097219443889,0
4.86497299459892,0
4.86897379475895,0
4.87297459491898,0
4.87697539507902,0
4.88097619523905,0
4.88497699539908,0
4.88897779555911,0
4.89297859571914,0
4.89697939587918,0
4.90098019603921,0
4.90498099619924,0
4.90898179635927,0
4.9129825965193,0
4.91698339667934,0
4.92098419683937,0
4.9249849969994,0
4.92898579715943,0
4.93298659731946,0
4.9369873974795,0
4.94098819763953,0
4.94498899779956,0
4.94898979795959,0
4.95299059811962,0
4.95699139827966,0
4.96099219843969,0
4.96499299859972,0
4.96899379875975,0
4.97299459891978,0
4.97699539907982,0
4.98099619923985,0
4.98499699939988,0
4.98899779955991,0
4.99299859971994,0
4.99699939987998,0
5.00100020004001,0
5.00500100020004,0
5.00900180036007,0
5.0130026005201,0
5.01700340068014,0
5.02100420084017,0
5.0250050010002,0
5.02900580116023,0
5.03300660132026,0
5.0370074014803,0
5.04100820164033,0
5.04500900180036,0
5.04900980196039,0
5.05301060212042,0
5.05701140228046,0
5.06101220244049,0
5.06501300260052,0
5.06901380276055,0
5.07301460292058,0
5.07701540308062,0
5.08101620324065,0
5.08501700340068,0
5.08901780356071,0
5.09301860372074,0
5.09701940388078,0
5.10102020404081,0
5.10502100420084,0
5.10902180436087,0
5.1130226045209,0
5.11702340468094,0
5.12102420484097,0
5.125025005001,0
5.12902580516103,0
5.13302660532106,0
5.1370274054811,0
5.14102820564113,0
5.14502900580116,0
5.14902980596119,0
5.15303060612123,0
5.15703140628126,0
5.16103220644129,0
5.16503300660132,0
5.16903380676135,0
5.17303460692139,0
5.17703540708142,0
5.18103620724145,0
5.18503700740148,0
5.18903780756151,0
5.19303860772155,0
5.19703940788158,0
5.20104020804161,0
5.20504100820164,0
5.20904180836167,0
5.21304260852171,0
5.21704340868174,0
5.22104420884177,0
5.2250450090018,0
5.22904580916183,0
5.23304660932187,0
5.2370474094819,0
5.24104820964193,0
5.24504900980196,0
5.24904980996199,0
5.25305061012202,0
5.25705141028206,0
5.26105221044209,0
5.26505301060212,0
5.26905381076215,0
5.27305461092218,0
5.27705541108222,0
5.28105621124225,0
5.28505701140228,0
5.28905781156231,0
5.29305861172234,0
5.29705941188238,0
5.30106021204241,0
5.30506101220244,0
5.30906181236247,0
5.3130626125225,0
5.31706341268254,0
5.32106421284257,0
5.3250650130026,0
5.32906581316263,0
5.33306661332266,0
5.3370674134827,0
5.34106821364273,0
5.34506901380276,0
5.34906981396279,0
5.35307061412282,0
5.35707141428286,0
5.36107221444289,0
5.36507301460292,0
5.36907381476295,0
5.37307461492298,0
5.37707541508302,0
5.38107621524305,0
5.38507701540308,0
5.38907781556311,0
5.39307861572315,0
5.39707941588318,0
5.40108021604321,0
5.40508101620324,0
5.40908181636327,0
5.41308261652331,0
5.41708341668334,0
5.42108421684337,0
5.4250850170034,0
5.42908581716343,0
5.43308661732347,0
5.4370874174835,0
5.44108821764353,0
5.44508901780356,0
5.44908981796359,0
5.45309061812363,0
5.45709141828366,0
5.46109221844369,0
5.46509301860372,0
5.46909381876375,0
5.47309461892379,0
5.47709541908382,0
5.48109621924385,0
5.48509701940388,0
5.48909781956391,0
5.49309861972395,0
5.49709941988398,0
5.50110022004401,0
5.50510102020404,0
5.50910182036407,0
5.51310262052411,0
5.51710342068414,0
5.52110422084417,0
5.5251050210042,0
5.52910582116423,0
5.53310662132427,0
5.5371074214843,0
5.54110822164433,0
5.54510902180436,0
5.54910982196439,0
5.55311062212443,0
5.55711142228446,0
5.56111222244449,0
5.56511302260452,0
5.56911382276455,0
5.57311462292459,0
5.57711542308462,0
5.58111622324465,0
5.58511702340468,0
5.58911782356471,0
5.59311862372475,0
5.59711942388478,0
5.60112022404481,0
5.60512102420484,0
5.60912182436487,0
5.61312262452491,0
5.61712342468494,0
5.62112422484497,0
5.625125025005,0
5.62912582516503,0
5.63312662532507,0
5.6371274254851,0
5.64112822564513,0
5.64512902580516,0
5.64912982596519,0
5.65313062612523,0
5.65713142628526,0
5.66113222644529,0
5.66513302660532,0
5.66913382676535,0
5.67313462692539,0
5.67713542708542,0
5.68113622724545,0
5.68513702740548,0
5.68913782756551,0
5.69313862772555,0
5.69713942788558,0
5.70114022804561,0
5.70514102820564,0
5.70914182836567,0
5.71314262852571,0
5.71714342868574,0
5.72114422884577,0
5.7251450290058,0
5.72914582916583,0
5.73314662932587,0
5.7371474294859,0
5.74114822964593,0
5.74514902980596,0
5.74914982996599,0
5.75315063012603,0
5.75715143028606,0
5.76115223044609,0
5.76515303060612,0
5.76915383076615,0
5.77315463092619,0
5.77715543108622,0
5.78115623124625,0
5.78515703140628,0
5.78915783156631,0
5.79315863172635,0
5.79715943188638,0
5.80116023204641,0
5.80516103220644,0
5.80916183236647,0
5.81316263252651,0
5.81716343268654,0
5.82116423284657,0
5.8251650330066,0
5.82916583316663,0
5.83316663332667,0
5.8371674334867,0
5.84116823364673,0
5.84516903380676,0
5.84916983396679,0
5.85317063412683,0
5.85717143428686,0
5.86117223444689,0
5.86517303460692,0
5.86917383476695,0
5.87317463492699,0
5.87717543508702,0
5.88117623524705,0
5.88517703540708,0
5.88917783556711,0
5.89317863572715,0
5.89717943588718,0
5.90118023604721,0
5.90518103620724,0
5.90918183636727,0
5.91318263652731,0
5.91718343668734,0
5.92118423684737,0
5.9251850370074,0
5.92918583716743,0
5.93318663732747,0
5.9371874374875,0
5.94118823764753,0
5.94518903780756,0
5.94918983796759,0
5.95319063812763,0
5.95719143828766,0
5.96119223844769,0
5.96519303860772,0
5.96919383876775,0
5.97319463892779,0
5.97719543908782,0
5.98119623924785,0
5.98519703940788,0
5.98919783956791,0
5.99319863972795,0
5.99719943988798,0
6.00120024004801,0
6.00520104020804,0
6.00920184036807,0
6.01320264052811,0
6.01720344068814,0
6.02120424084817,0
6.0252050410082,0
6.02920584116823,0
6.03320664132827,0
6.0372074414883,0
6.04120824164833,0
6.04520904180836,0
6.04920984196839,0
6.05321064212843,0
6.05721144228846,0
6.06121224244849,0
6.06521304260852,0
6.06921384276855,0
6.07321464292859,0
6.07721544308862,0
6.08121624324865,0
6.08521704340868,0
6.08921784356871,0
6.09321864372875,0
6.09721944388878,0
6.10122024404881,0
6.10522104420884,0
6.10922184436887,0
6.11322264452891,0
6.11722344468894,0
6.12122424484897,0
6.125225045009,0
6.12922584516903,0
6.13322664532907,0
6.1372274454891,0
6.14122824564913,0
6.14522904580916,0
6.14922984596919,0
6.15323064612923,0
6.15723144628926,0
6.16123224644929,0
6.16523304660932,0
6.16923384676935,0
6.17323464692939,0
6.17723544708942,0
6.18123624724945,0
6.18523704740948,0
6.18923784756951,0
6.19323864772955,0
6.19723944788958,0
6.20124024804961,0
6.20524104820964,0
6.20924184836967,0
6.21324264852971,0
6.21724344868974,0
6.22124424884977,0
6.2252450490098,0
6.22924584916983,0
6.23324664932987,0
6.2372474494899,0
6.24124824964993,0
6.24524904980996,0
6.24924984996999,0
6.25325065013003,0
6.25725145029006,0
6.26125225045009,0
6.26525305061012,0
6.26925385077015,0
6.27325465093019,0
6.27725545109022,0
6.28125625125025,0
6.28525705141028,0
6.28925785157031,0
6.29325865173035,0
6.29725945189038,0
6.30126025205041,0
6.30526105221044,0
6.30926185237047,0
6.31326265253051,0
6.31726345269054,0
6.32126425285057,0
6.3252650530106,0
6.32926585317063,0
6.33326665333067,0
6.3372674534907,0
6.34126825365073,0
6.34526905381076,0
6.34926985397079,0
6.35327065413083,0
6.35727145429086,0
6.36127225445089,0
6.36527305461092,0
6.36927385477095,0
6.37327465493099,0
6.37727545509102,0
6.38127625525105,0
6.38527705541108,0
6.38927785557111,0
6.39327865573115,0
6.39727945589118,0
6.40128025605121,0
6.40528105621124,0
6.40928185637127,0
6.41328265653131,0
6.41728345669134,0
6.42128425685137,0
6.4252850570114,0
6.42928585717143,0
6.43328665733147,0
6.4372874574915,0
6.44128825765153,0
6.44528905781156,0
6.44928985797159,0
6.45329065813163,0
6.45729145829166,0
6.46129225845169,0
6.46529305861172,0
6.46929385877176,0
6.47329465893179,0
6.47729545909182,0
6.48129625925185,0
6.48529705941188,0
6.48929785957192,0
6.49329865973195,0
6.49729945989198,0
6.50130026005201,0
6.50530106021204,0
6.50930186037208,0
6.51330266053211,0
6.51730346069214,0
6.52130426085217,0
6.5253050610122,0
6.52930586117224,0
6.53330666133227,0
6.5373074614923,0
6.54130826165233,0
6.54530906181236,0
6.5493098619724,0
6.55331066213243,0
6.55731146229246,0
6.56131226245249,0
6.56531306261252,0
6.56931386277256,0
6.57331466293259,0
6.57731546309262,0
6.58131626325265,0
6.58531706341268,0
6.58931786357272,0
6.59331866373275,0
6.59731946389278,0
6.60132026405281,0
6.60532106421284,0
6.60932186437287,0
6.61332266453291,0
6.61732346469294,0
6.62132426485297,0
6.625325065013,0
6.62932586517303,0
6.63332666533307,0
6.6373274654931,0
6.64132826565313,0
6.64532906581316,0
6.64932986597319,0
6.65333066613323,0
6.65733146629326,0
6.66133226645329,0
6.66533306661332,0
6.66933386677335,0
6.67333466693339,0
6.67733546709342,0
6.68133626725345,0
6.68533706741348,0
6.68933786757351,0
6.69333866773355,0
6.69733946789358,0
6.70134026805361,0
6.70534106821364,0
6.70934186837368,0
6.71334266853371,0
6.71734346869374,0
6.72134426885377,0
6.7253450690138,0
6.72934586917384,0
6.73334666933387,0
6.7373474694939,0
6.74134826965393,0
6.74534906981396,0
6.749349869974,0
6.75335067013403,0
6.75735147029406,0
6.76135227045409,0
6.76535307061412,0
6.76935387077416,0
6.77335467093419,0
6.77735547109422,0
6.78135627125425,0
6.78535707141428,0
6.78935787157432,0
6.79335867173435,0
6.79735947189438,0
6.80136027205441,0
6.80536107221444,0
6.80936187237448,0
6.81336267253451,0
6.81736347269454,0
6.82136427285457,0
6.8253650730146,0
6.82936587317464,0
6.83336667333467,0
6.8373674734947,0
6.84136827365473,0
6.84536907381476,0
6.8493698739748,0
6.85337067413483,0
6.85737147429486,0
6.86137227445489,0
6.86537307461492,0
6.86937387477496,0
6.87337467493499,0
6.87737547509502,0
6.88137627525505,0
6.88537707541508,0
6.88937787557512,0
6.89337867573515,0
6.89737947589518,0
6.90138027605521,0
6.90538107621524,0
6.90938187637528,0
6.91338267653531,0
6.91738347669534,0
6.92138427685537,0
6.9253850770154,0
6.92938587717544,0
6.93338667733547,0
6.9373874774955,0
6.94138827765553,0
6.94538907781556,0
6.9493898779756,0
6.95339067813563,0
6.95739147829566,0
6.96139227845569,0
6.96539307861572,0
6.96939387877576,0
6.97339467893579,0
6.97739547909582,0
6.98139627925585,0
6.98539707941588,0
6.98939787957592,0
6.99339867973595,0
6.99739947989598,0
7.00140028005601,0
7.00540108021604,0
7.00940188037608,0
7.01340268053611,0
7.01740348069614,0
7.02140428085617,0
7.0254050810162,0
7.02940588117624,0
7.03340668133627,0
7.0374074814963,0
7.04140828165633,0
7.04540908181636,0
7.0494098819764,0
7.05341068213643,0
7.05741148229646,0
7.06141228245649,0
7.06541308261652,0
7.06941388277656,0
7.07341468293659,0
7.07741548309662,0
7.08141628325665,0
7.08541708341668,0
7.08941788357672,0
7.09341868373675,0
7.09741948389678,0
7.10142028405681,0
7.10542108421684,0
7.10942188437688,0
7.11342268453691,0
7.11742348469694,0
7.12142428485697,0
7.125425085017,0
7.12942588517704,0
7.13342668533707,0
7.1374274854971,0
7.14142828565713,0
7.14542908581716,0
7.1494298859772,0
7.15343068613723,0
7.15743148629726,0
7.16143228645729,0
7.16543308661732,0
7.16943388677736,0
7.17343468693739,0
7.17743548709742,0
7.18143628725745,0
7.18543708741748,0
7.18943788757752,0
7.19343868773755,0
7.19743948789758,0
7.20144028805761,0
7.20544108821764,0
7.20944188837768,0
7.21344268853771,0
7.21744348869774,0
7.22144428885777,0
7.2254450890178,0
7.22944588917784,0
7.23344668933787,0
7.2374474894979,0
7.24144828965793,0
7.24544908981796,0
7.249449889978,0
7.25345069013803,0
7.25745149029806,0
7.26145229045809,0
7.26545309061812,0
7.26945389077816,0
7.27345469093819,0
7.27745549109822,0
7.28145629125825,0
7.28545709141828,0
7.28945789157832,0
7.29345869173835,0
7.29745949189838,0
7.30146029205841,0
7.30546109221844,0
7.30946189237848,0
7.31346269253851,0
7.31746349269854,0
7.32146429285857,0
7.3254650930186,0
7.32946589317864,0
7.33346669333867,0
7.3374674934987,0
7.34146829365873,0
7.34546909381876,0
7.3494698939788,0
7.35347069413883,0
7.35747149429886,0
7.36147229445889,0
7.36547309461892,0
7.36947389477896,0
7.37347469493899,0
7.37747549509902,0
7.38147629525905,0
7.38547709541908,0
7.38947789557912,0
7.39347869573915,0
7.39747949589918,0
7.40148029605921,0
7.40548109621924,0
7.40948189637928,0
7.41348269653931,0
7.41748349669934,0
7.42148429685937,0
7.4254850970194,0
7.42948589717944,0
7.43348669733947,0
7.4374874974995,0
7.44148829765953,0
7.44548909781956,0
7.4494898979796,0
7.45349069813963,0
7.45749149829966,0
7.46149229845969,0
7.46549309861972,0
7.46949389877976,0
7.47349469893979,0
7.47749549909982,0
7.48149629925985,0
7.48549709941988,0
7.48949789957992,0
7.49349869973995,0
7.49749949989998,0
7.50150030006001,0
7.50550110022004,0
7.50950190038008,0
7.51350270054011,0
7.51750350070014,0
7.52150430086017,0
7.5255051010202,0
7.52950590118024,0
7.53350670134027,0
7.5375075015003,0
7.54150830166033,0
7.54550910182036,0
7.5495099019804,0
7.55351070214043,0
7.55751150230046,0
7.56151230246049,0
7.56551310262052,0
7.56951390278056,0
7.57351470294059,0
7.57751550310062,0
7.58151630326065,0
7.58551710342068,0
7.58951790358072,0
7.59351870374075,0
7.59751950390078,0
7.60152030406081,0
7.60552110422084,0
7.60952190438088,0
7.61352270454091,0
7.61752350470094,0
7.62152430486097,0
7.625525105021,0
7.62952590518104,0
7.63352670534107,0
7.6375275055011,0
7.64152830566113,0
7.64552910582116,0
7.6495299059812,0
7.65353070614123,0
7.65753150630126,0
7.66153230646129,0
7.66553310662132,0
7.66953390678136,0
7.67353470694139,0
7.67753550710142,0
7.68153630726145,0
7.68553710742148,0
7.68953790758152,0
7.69353870774155,0
7.69753950790158,0
7.70154030806161,0
7.70554110822164,0
7.70954190838168,0
7.71354270854171,0
7.71754350870174,0
7.72154430886177,0
7.7255451090218,0
7.72954590918184,0
7.73354670934187,0
7.7375475095019,0
7.74154830966193,0
7.74554910982196,0
7.749549909982,0
7.75355071014203,0
7.75755151030206,0
7.76155231046209,0
7.76555311062212,0
7.76955391078216,0
7.77355471094219,0
7.77755551110222,0
7.78155631126225,0
7.78555711142229,0
7.78955791158232,0
7.79355871174235,0
7.79755951190238,0
7.80156031206241,0
7.80556111222245,0
7.80956191238248,0
7.81356271254251,0
7.81756351270254,0
7.82156431286257,0
7.82556511302261,0
7.82956591318264,0
7.83356671334267,0
7.8375675135027,0
7.84156831366273,0
7.84556911382277,0
7.8495699139828,0
7.85357071414283,0
7.85757151430286,0
7.86157231446289,0
7.86557311462293,0
7.86957391478296,0
7.87357471494299,0
7.87757551510302,0
7.88157631526305,0
7.88557711542309,0
7.88957791558312,0
7.89357871574315,0
7.89757951590318,0
7.90158031606321,0
7.90558111622325,0
7.90958191638328,0
7.91358271654331,0
7.91758351670334,0
7.92158431686337,0
7.92558511702341,0
7.92958591718344,0
7.93358671734347,0
7.9375875175035,0
7.94158831766353,0
7.94558911782357,0
7.9495899179836,0
7.95359071814363,0
7.95759151830366,0
7.96159231846369,0
7.96559311862373,0
7.96959391878376,0
7.97359471894379,0
7.97759551910382,0
7.98159631926385,0
7.98559711942388,0
7.98959791958392,0
7.99359871974395,0
7.99759951990398,0
8.00160032006401,0
8.00560112022404,0
8.00960192038408,0
8.01360272054411,0
8.01760352070414,0
8.02160432086417,0
8.02560512102421,0
8.02960592118424,0
8.03360672134427,0
8.0376075215043,0
8.04160832166433,0
8.04560912182437,0
8.0496099219844,0
8.05361072214443,0
8.05761152230446,0
8.06161232246449,0
8.06561312262453,0
8.06961392278456,0
8.07361472294459,0
8.07761552310462,0
8.08161632326465,0
8.08561712342469,0
8.08961792358472,0
8.09361872374475,0
8.09761952390478,0
8.10162032406481,0
8.10562112422485,0
8.10962192438488,0
8.11362272454491,0
8.11762352470494,0
8.12162432486497,0
8.12562512502501,0
8.12962592518504,0
8.13362672534507,0
8.1376275255051,0
8.14162832566513,0
8.14562912582517,0
8.1496299259852,0
8.15363072614523,0
8.15763152630526,0
8.16163232646529,0
8.16563312662533,0
8.16963392678536,0
8.17363472694539,0
8.17763552710542,0
8.18163632726545,0
8.18563712742549,0
8.18963792758552,0
8.19363872774555,0
8.19763952790558,0
8.20164032806561,0
8.20564112822565,0
8.20964192838568,0
8.21364272854571,0
8.21764352870574,0
8.22164432886577,0
8.22564512902581,0
8.22964592918584,0
8.23364672934587,0
8.2376475295059,0
8.24164832966593,0
8.24564912982597,0
8.249649929986,0
8.25365073014603,0
8.25765153030606,0
8.26165233046609,0
8.26565313062613,0
8.26965393078616,0
8.27365473094619,0
8.27765553110622,0
8.28165633126625,0
8.28565713142629,0
8.28965793158632,0
8.29365873174635,0
8.29765953190638,0
8.30166033206641,0
8.30566113222645,0
8.30966193238648,0
8.31366273254651,0
8.31766353270654,0
8.32166433286657,0
8.32566513302661,0
8.32966593318664,0
8.33366673334667,0
8.3376675335067,0
8.34166833366673,0
8.34566913382677,0
8.3496699339868,0
8.35367073414683,0
8.35767153430686,0
8.36167233446689,0
8.36567313462693,0
8.36967393478696,0
8.37367473494699,0
8.37767553510702,0
8.38167633526705,0
8.38567713542709,0
8.38967793558712,0
8.39367873574715,0
8.39767953590718,0
8.40168033606721,0
8.40568113622725,0
8.40968193638728,0
8.41368273654731,0
8.41768353670734,0
8.42168433686737,0
8.42568513702741,0
8.42968593718744,0
8.43368673734747,0
8.4376875375075,0
8.44168833766753,0
8.44568913782757,0
8.4496899379876,0
8.45369073814763,0
8.45769153830766,0
8.46169233846769,0
8.46569313862773,0
8.46969393878776,0
8.47369473894779,0
8.47769553910782,0
8.48169633926785,0
8.48569713942789,0
8.48969793958792,0
8.49369873974795,0
8.49769953990798,0
8.50170034006801,0
8.50570114022805,0
8.50970194038808,0
8.51370274054811,0
8.51770354070814,0
8.52170434086817,0
8.52570514102821,0
8.52970594118824,0
8.53370674134827,0
8.5377075415083,0
8.54170834166833,0
8.54570914182837,0
8.5497099419884,0
8.55371074214843,0
8.55771154230846,0
8.56171234246849,0
8.56571314262853,0
8.56971394278856,0
8.57371474294859,0
8.57771554310862,0
8.58171634326866,0
8.58571714342869,0
8.58971794358872,0
8.59371874374875,0
8.59771954390878,0
8.60172034406882,0
8.60572114422885,0
8.60972194438888,0
8.61372274454891,0
8.61772354470894,0
8.62172434486898,0
8.62572514502901,0
8.62972594518904,0
8.63372674534907,0
8.6377275455091,0
8.64172834566914,0
8.64572914582917,0
8.6497299459892,0
8.65373074614923,0
8.65773154630926,0
8.66173234646929,0
8.66573314662933,0
8.66973394678936,0
8.67373474694939,0
8.67773554710942,0
8.68173634726945,0
8.68573714742949,0
8.68973794758952,0
8.69373874774955,0
8.69773954790958,0
8.70174034806961,0
8.70574114822965,0
8.70974194838968,0
8.71374274854971,0
8.71774354870974,0
8.72174434886977,0
8.72574514902981,0
8.72974594918984,0
8.73374674934987,0
8.7377475495099,0
8.74174834966993,0
8.74574914982997,0
8.74974994999,0
8.75375075015003,0
8.75775155031006,0
8.76175235047009,0
8.76575315063013,0
8.76975395079016,0
8.77375475095019,0
8.77775555111022,0
8.78175635127025,0
8.78575715143029,0
8.78975795159032,0
8.79375875175035,0
8.79775955191038,0
8.80176035207041,0
8.80576115223045,0
8.80976195239048,0
8.81376275255051,0
8.81776355271054,0
8.82176435287057,0
8.82576515303061,0
8.82976595319064,0
8.83376675335067,0
8.8377675535107,0
8.84176835367073,0
8.84576915383077,0
8.8497699539908,0
8.85377075415083,0
8.85777155431086,0
8.86177235447089,0
8.86577315463093,0
8.86977395479096,0
8.87377475495099,0
8.87777555511102,0
8.88177635527105,0
8.88577715543109,0
8.88977795559112,0
8.89377875575115,0
8.89777955591118,0
8.90178035607121,0
8.90578115623125,0
8.90978195639128,0
8.91378275655131,0
8.91778355671134,0
8.92178435687137,0
8.92578515703141,0
8.92978595719144,0
8.93378675735147,0
8.9377875575115,0
8.94178835767153,0
8.94578915783157,0
8.9497899579916,0
8.95379075815163,0
8.95779155831166,0
8.96179235847169,0
8.96579315863173,0
8.96979395879176,0
8.97379475895179,0
8.97779555911182,0
8.98179635927185,0
8.98579715943189,0
8.98979795959192,0
8.99379875975195,0
8.99779955991198,0
9.00180036007201,0
9.00580116023205,0
9.00980196039208,0
9.01380276055211,0
9.01780356071214,0
9.02180436087217,0
9.02580516103221,0
9.02980596119224,0
9.03380676135227,0
9.0378075615123,0
9.04180836167233,0
9.04580916183237,0
9.0498099619924,0
9.05381076215243,0
9.05781156231246,0
9.06181236247249,0
9.06581316263253,0
9.06981396279256,0
9.07381476295259,0
9.07781556311262,0
9.08181636327266,0
9.08581716343269,0
9.08981796359272,0
9.09381876375275,0
9.09781956391278,0
9.10182036407282,0
9.10582116423285,0
9.10982196439288,0
9.11382276455291,0
9.11782356471294,0
9.12182436487298,0
9.12582516503301,0
9.12982596519304,0
9.13382676535307,0
9.1378275655131,0
9.14182836567314,0
9.14582916583317,0
9.1498299659932,0
9.15383076615323,0
9.15783156631326,0
9.1618323664733,0
9.16583316663333,0
9.16983396679336,0
9.17383476695339,0
9.17783556711342,0
9.18183636727346,0
9.18583716743349,0
9.18983796759352,0
9.19383876775355,0
9.19783956791358,0
9.20184036807362,0
9.20584116823365,0
9.20984196839368,0
9.21384276855371,0
9.21784356871374,0
9.22184436887378,0
9.22584516903381,0
9.22984596919384,0
9.23384676935387,0
9.2378475695139,0
9.24184836967394,0
9.24584916983397,0
9.249849969994,0
9.25385077015403,0
9.25785157031406,0
9.2618523704741,0
9.26585317063413,0
9.26985397079416,0
9.27385477095419,0
9.27785557111422,0
9.28185637127426,0
9.28585717143429,0
9.28985797159432,0
9.29385877175435,0
9.29785957191438,0
9.30186037207442,0
9.30586117223445,0
9.30986197239448,0
9.31386277255451,0
9.31786357271454,0
9.32186437287458,0
9.32586517303461,0
9.32986597319464,0
9.33386677335467,0
9.3378675735147,0
9.34186837367474,0
9.34586917383477,0
9.3498699739948,0
9.35387077415483,0
9.35787157431486,0
9.3618723744749,0
9.36587317463493,0
9.36987397479496,0
9.37387477495499,0
9.37787557511502,0
9.38187637527506,0
9.38587717543509,0
9.38987797559512,0
9.39387877575515,0
9.39787957591518,0
9.40188037607522,0
9.40588117623525,0
9.40988197639528,0
9.41388277655531,0
9.41788357671534,0
9.42188437687538,0
9.42588517703541,0
9.42988597719544,0
9.43388677735547,0
9.4378875775155,0
9.44188837767554,0
9.44588917783557,0
9.4498899779956,0
9.45389077815563,0
9.45789157831566,0
9.4618923784757,0
9.46589317863573,0
9.46989397879576,0
9.47389477895579,0
9.47789557911582,0
9.48189637927586,0
9.48589717943589,0
9.48989797959592,0
9.49389877975595,0
9.49789957991598,0
9.50190038007602,0
9.50590118023605,0
9.50990198039608,0
9.51390278055611,0
9.51790358071614,0
9.52190438087618,0
9.52590518103621,0
9.52990598119624,0
9.53390678135627,0
9.5379075815163,0
9.54190838167634,0
9.54590918183637,0
9.5499099819964,0
9.55391078215643,0
9.55791158231646,0
9.56191238247649,0
9.56591318263653,0
9.56991398279656,0
9.57391478295659,0
9.57791558311662,0
9.58191638327666,0
9.58591718343669,0
9.58991798359672,0
9.59391878375675,0
9.59791958391678,0
9.60192038407682,0
9.60592118423685,0
9.60992198439688,0
9.61392278455691,0
9.61792358471694,0
9.62192438487698,0
9.62592518503701,0
9.62992598519704,0
9.63392678535707,0
9.6379275855171,0
9.64192838567714,0
9.64592918583717,0
9.6499299859972,0
9.65393078615723,0
9.65793158631726,0
9.6619323864773,0
9.66593318663733,0
9.66993398679736,0
9.67393478695739,0
9.67793558711742,0
9.68193638727746,0
9.68593718743749,0
9.68993798759752,0
9.69393878775755,0
9.69793958791758,0
9.70194038807762,0
9.70594118823765,0
9.70994198839768,0
9.71394278855771,0
9.71794358871774,0
9.72194438887778,0
9.72594518903781,0
9.72994598919784,0
9.73394678935787,0
9.7379475895179,0
9.74194838967794,0
9.74594918983797,0
9.749949989998,0
9.75395079015803,0
9.75795159031806,0
9.7619523904781,0
9.76595319063813,0
9.76995399079816,0
9.77395479095819,0
9.77795559111822,0
9.78195639127826,0
9.78595719143829,0
9.78995799159832,0
9.79395879175835,0
9.79795959191838,0
9.80196039207842,0
9.80596119223845,0
9.80996199239848,0
9.81396279255851,0
9.81796359271854,0
9.82196439287858,0
9.82596519303861,0
9.82996599319864,0
9.83396679335867,0
9.8379675935187,0
9.84196839367874,0
9.84596919383877,0
9.8499699939988,0
9.85397079415883,0
9.85797159431886,0
9.8619723944789,0
9.86597319463893,0
9.86997399479896,0
9.87397479495899,0
9.87797559511902,0
9.88197639527906,0
9.88597719543909,0
9.88997799559912,0
9.89397879575915,0
9.89797959591918,0
9.90198039607922,0
9.90598119623925,0
9.90998199639928,0
9.91398279655931,0
9.91798359671934,0
9.92198439687938,0
9.92598519703941,0
9.92998599719944,0
9.93398679735947,0
9.9379875975195,0
9.94198839767954,0
9.94598919783957,0
9.9499899979996,0
9.95399079815963,0
9.95799159831966,0
9.9619923984797,0
9.96599319863973,0
9.96999399879976,0
9.97399479895979,0
9.97799559911982,0
9.98199639927986,0
9.98599719943989,0
9.98999799959992,0
9.99399879975995,0
9.99799959991998,0
10.00200040008,0
10.0060012002401,0
10.0100020004001,0
10.0140028005601,0
10.0180036007201,0
10.0220044008802,0
10.0260052010402,0
10.0300060012002,0
10.0340068013603,0
10.0380076015203,0
10.0420084016803,0
10.0460092018404,0
10.0500100020004,0
10.0540108021604,0
10.0580116023205,0
10.0620124024805,0
10.0660132026405,0
10.0700140028006,0
10.0740148029606,0
10.0780156031206,0
10.0820164032807,0
10.0860172034407,0
10.0900180036007,0
10.0940188037608,0
10.0980196039208,0
10.1020204040808,0
10.1060212042409,0
10.1100220044009,0
10.1140228045609,0
10.1180236047209,0
10.122024404881,0
10.126025205041,0
10.130026005201,0
10.1340268053611,0
10.1380276055211,0
10.1420284056811,0
10.1460292058412,0
10.1500300060012,0
10.1540308061612,0
10.1580316063213,0
10.1620324064813,0
10.1660332066413,0
10.1700340068014,0
10.1740348069614,0
10.1780356071214,0
10.1820364072815,0
10.1860372074415,0
10.1900380076015,0
10.1940388077616,0
10.1980396079216,0
10.2020404080816,0
10.2060412082417,0
10.2100420084017,0
10.2140428085617,0
10.2180436087217,0
10.2220444088818,0
10.2260452090418,0
10.2300460092018,0
10.2340468093619,0
10.2380476095219,0
10.2420484096819,0
10.246049209842,0
10.250050010002,0
10.254050810162,0
10.2580516103221,0
10.2620524104821,0
10.2660532106421,0
10.2700540108022,0
10.2740548109622,0
10.2780556111222,0
10.2820564112823,0
10.2860572114423,0
10.2900580116023,0
10.2940588117624,0
10.2980596119224,0
10.3020604120824,0
10.3060612122425,0
10.3100620124025,0
10.3140628125625,0
10.3180636127226,0
10.3220644128826,0
10.3260652130426,0
10.3300660132026,0
10.3340668133627,0
10.3380676135227,0
10.3420684136827,0
10.3460692138428,0
10.3500700140028,0
10.3540708141628,0
10.3580716143229,0
10.3620724144829,0
10.3660732146429,0
10.370074014803,0
10.374074814963,0
10.378075615123,0
10.3820764152831,0
10.3860772154431,0
10.3900780156031,0
10.3940788157632,0
10.3980796159232,0
10.4020804160832,0
10.4060812162433,0
10.4100820164033,0
10.4140828165633,0
10.4180836167234,0
10.4220844168834,0
10.4260852170434,0
10.4300860172034,0
10.4340868173635,0
10.4380876175235,0
10.4420884176835,0
10.4460892178436,0
10.4500900180036,0
10.4540908181636,0
10.4580916183237,0
10.4620924184837,0
10.4660932186437,0
10.4700940188038,0
10.4740948189638,0
10.4780956191238,0
10.4820964192839,0
10.4860972194439,0
10.4900980196039,0
10.494098819764,0
10.498099619924,0
10.502100420084,0
10.5061012202441,0
10.5101020204041,0
10.5141028205641,0
10.5181036207241,0
10.5221044208842,0
10.5261052210442,0
10.5301060212042,0
10.5341068213643,0
10.5381076215243,0
10.5421084216843,0
10.5461092218444,0
10.5501100220044,0
10.5541108221644,0
10.5581116223245,0
10.5621124224845,0
10.5661132226445,0
10.5701140228046,0
10.5741148229646,0
10.5781156231246,0
10.5821164232847,0
10.5861172234447,0
10.5901180236047,0
10.5941188237648,0
10.5981196239248,0
10.6021204240848,0
10.6061212242449,0
10.6101220244049,0
10.6141228245649,0
10.6181236247249,0
10.622124424885,0
10.626125225045,0
10.630126025205,0
10.6341268253651,0
10.6381276255251,0
10.6421284256851,0
10.6461292258452,0
10.6501300260052,0
10.6541308261652,0
10.6581316263253,0
10.6621324264853,0
10.6661332266453,0
10.6701340268054,0
10.6741348269654,0
10.6781356271254,0
10.6821364272855,0
10.6861372274455,0
10.6901380276055,0
10.6941388277656,0
10.6981396279256,0
10.7021404280856,0
10.7061412282457,0
10.7101420284057,0
10.7141428285657,0
10.7181436287257,0
10.7221444288858,0
10.7261452290458,0
10.7301460292058,0
10.7341468293659,0
10.7381476295259,0
10.7421484296859,0
10.746149229846,0
10.750150030006,0
10.754150830166,0
10.7581516303261,0
10.7621524304861,0
10.7661532306461,0
10.7701540308062,0
10.7741548309662,0
10.7781556311262,0
10.7821564312863,0
10.7861572314463,0
10.7901580316063,0
10.7941588317664,0
10.7981596319264,0
10.8021604320864,0
10.8061612322465,0
10.8101620324065,0
10.8141628325665,0
10.8181636327266,0
10.8221644328866,0
10.8261652330466,0
10.8301660332066,0
10.8341668333667,0
10.8381676335267,0
10.8421684336867,0
10.8461692338468,0
10.8501700340068,0
10.8541708341668,0
10.8581716343269,0
10.8621724344869,0
10.8661732346469,0
10.870174034807,0
10.874174834967,0
10.878175635127,0
10.8821764352871,0
10.8861772354471,0
10.8901780356071,0
10.8941788357672,0
10.8981796359272,0
10.9021804360872,0
10.9061812362473,0
10.9101820364073,0
10.9141828365673,0
10.9181836367274,0
10.9221844368874,0
10.9261852370474,0
10.9301860372074,0
10.9341868373675,0
10.9381876375275,0
10.9421884376875,0
10.9461892378476,0
10.9501900380076,0
10.9541908381676,0
10.9581916383277,0
10.9621924384877,0
10.9661932386477,0
10.9701940388078,0
10.9741948389678,0
10.9781956391278,0
10.9821964392879,0
10.9861972394479,0
10.9901980396079,0
10.994198839768,0
10.998199639928,0
11.002200440088,0
11.0062012402481,0
11.0102020404081,0
11.0142028405681,0
11.0182036407282,0
11.0222044408882,0
11.0262052410482,0
11.0302060412082,0
11.0342068413683,0
11.0382076415283,0
11.0422084416883,0
11.0462092418484,0
11.0502100420084,0
11.0542108421684,0
11.0582116423285,0
11.0622124424885,0
11.0662132426485,0
11.0702140428086,0
11.0742148429686,0
11.0782156431286,0
11.0822164432887,0
11.0862172434487,0
11.0902180436087,0
11.0942188437688,0
11.0982196439288,0
11.1022204440888,0
11.1062212442489,0
11.1102220444089,0
11.1142228445689,0
11.118223644729,0
11.122224444889,0
11.126225245049,0
11.130226045209,0
11.1342268453691,0
11.1382276455291,0
11.1422284456891,0
11.1462292458492,0
11.1502300460092,0
11.1542308461692,0
11.1582316463293,0
11.1622324464893,0
11.1662332466493,0
11.1702340468094,0
11.1742348469694,0
11.1782356471294,0
11.1822364472895,0
11.1862372474495,0
11.1902380476095,0
11.1942388477696,0
11.1982396479296,0
11.2022404480896,0
11.2062412482497,0
11.2102420484097,0
11.2142428485697,0
11.2182436487298,0
11.2222444488898,0
11.2262452490498,0
11.2302460492098,0
11.2342468493699,0
11.2382476495299,0
11.2422484496899,0
11.24624924985,0
11.25025005001,0
11.25425085017,0
11.2582516503301,0
11.2622524504901,0
11.2662532506501,0
11.2702540508102,0
11.2742548509702,0
11.2782556511302,0
11.2822564512903,0
11.2862572514503,0
11.2902580516103,0
11.2942588517704,0
11.2982596519304,0
11.3022604520904,0
11.3062612522505,0
11.3102620524105,0
11.3142628525705,0
11.3182636527306,0
11.3222644528906,0
11.3262652530506,0
11.3302660532106,0
11.3342668533707,0
11.3382676535307,0
11.3422684536907,0
11.3462692538508,0
11.3502700540108,0
11.3542708541708,0
11.3582716543309,0
11.3622724544909,0
11.3662732546509,0
11.370274054811,0
11.374274854971,0
11.378275655131,0
11.3822764552911,0
11.3862772554511,0
11.3902780556111,0
11.3942788557712,0
11.3982796559312,0
11.4022804560912,0
11.4062812562513,0
11.4102820564113,0
11.4142828565713,0
11.4182836567314,0
11.4222844568914,0
11.4262852570514,0
11.4302860572114,0
11.4342868573715,0
11.4382876575315,0
11.4422884576915,0
11.4462892578516,0
11.4502900580116,0
11.4542908581716,0
11.4582916583317,0
11.4622924584917,0
11.4662932586517,0
11.4702940588118,0
11.4742948589718,0
11.4782956591318,0
11.4822964592919,0
11.4862972594519,0
11.4902980596119,0
11.494298859772,0
11.498299659932,0
11.502300460092,0
11.5063012602521,0
11.5103020604121,0
11.5143028605721,0
11.5183036607322,0
11.5223044608922,0
11.5263052610522,0
11.5303060612122,0
11.5343068613723,0
11.5383076615323,0
11.5423084616923,0
11.5463092618524,0
11.5503100620124,0
11.5543108621724,0
11.5583116623325,0
11.5623124624925,0
11.5663132626525,0
11.5703140628126,0
11.5743148629726,0
11.5783156631326,0
11.5823164632927,0
11.5863172634527,0
11.5903180636127,0
11.5943188637728,0
11.5983196639328,0
11.6023204640928,0
11.6063212642529,0
11.6103220644129,0
11.6143228645729,0
11.618323664733,0
11.622324464893,0
11.626325265053,0
11.630326065213,0
11.6343268653731,0
11.6383276655331,0
11.6423284656931,0
11.6463292658532,0
11.6503300660132,0
11.6543308661732,0
11.6583316663333,0
11.6623324664933,0
11.6663332666533,0
11.6703340668134,0
11.6743348669734,0
11.6783356671334,0
11.6823364672935,0
11.6863372674535,0
11.6903380676135,0
11.6943388677736,0
11.6983396679336,0
11.7023404680936,0
11.7063412682537,0
11.7103420684137,0
11.7143428685737,0
11.7183436687338,0
11.7223444688938,0
11.7263452690538,0
11.7303460692138,0
11.7343468693739,0
11.7383476695339,0
11.7423484696939,0
11.746349269854,0
11.750350070014,0
11.754350870174,0
11.7583516703341,0
11.7623524704941,0
11.7663532706541,0
11.7703540708142,0
11.7743548709742,0
11.7783556711342,0
11.7823564712943,0
11.7863572714543,0
11.7903580716143,0
11.7943588717744,0
11.7983596719344,0
11.8023604720944,0
11.8063612722545,0
11.8103620724145,0
11.8143628725745,0
11.8183636727346,0
11.8223644728946,0
11.8263652730546,0
11.8303660732146,0
11.8343668733747,0
11.8383676735347,0
11.8423684736947,0
11.8463692738548,0
11.8503700740148,0
11.8543708741748,0
11.8583716743349,0
11.8623724744949,0
11.8663732746549,0
11.870374074815,0
11.874374874975,0
11.878375675135,0
11.8823764752951,0
11.8863772754551,0
11.8903780756151,0
11.8943788757752,0
11.8983796759352,0
11.9023804760952,0
11.9063812762553,0
11.9103820764153,0
11.9143828765753,0
11.9183836767354,0
11.9223844768954,0
11.9263852770554,0
11.9303860772154,0
11.9343868773755,0
11.9383876775355,0
11.9423884776955,0
11.9463892778556,0
11.9503900780156,0
11.9543908781756,0
11.9583916783357,0
11.9623924784957,0
11.9663932786557,0
11.9703940788158,0
11.9743948789758,0
11.9783956791358,0
11.9823964792959,0
11.9863972794559,0
11.9903980796159,0
11.994398879776,0
11.998399679936,0
12.002400480096,0
12.0064012802561,0
12.0104020804161,0
12.0144028805761,0
12.0184036807362,0
12.0224044808962,0
12.0264052810562,0
12.0304060812162,0
12.0344068813763,0
12.0384076815363,0
12.0424084816963,0
12.0464092818564,0
12.0504100820164,0
12.0544108821764,0
12.0584116823365,0
12.0624124824965,0
12.0664132826565,0
12.0704140828166,0
12.0744148829766,0
12.0784156831366,0
12.0824164832967,0
12.0864172834567,0
12.0904180836167,0
12.0944188837768,0
12.0984196839368,0
12.1024204840968,0
12.1064212842569,0
12.1104220844169,0
12.1144228845769,0
12.118423684737,0
12.122424484897,0
12.126425285057,0
12.130426085217,0
12.1344268853771,0
12.1384276855371,0
12.1424284856971,0
12.1464292858572,0
12.1504300860172,0
12.1544308861772,0
12.1584316863373,0
12.1624324864973,0
12.1664332866573,0
12.1704340868174,0
12.1744348869774,0
12.1784356871374,0
12.1824364872975,0
12.1864372874575,0
12.1904380876175,0
12.1944388877776,0
12.1984396879376,0
12.2024404880976,0
12.2064412882577,0
12.2104420884177,0
12.2144428885777,0
12.2184436887378,0
12.2224444888978,0
12.2264452890578,0
12.2304460892178,0
12.2344468893779,0
12.2384476895379,0
12.2424484896979,0
12.246449289858,0
12.250450090018,0
12.254450890178,0
12.2584516903381,0
12.2624524904981,0
12.2664532906581,0
12.2704540908182,0
12.2744548909782,0
12.2784556911382,0
12.2824564912983,0
12.2864572914583,0
12.2904580916183,0
12.2944588917784,0
12.2984596919384,0
12.3024604920984,0
12.3064612922585,0
12.3104620924185,0
12.3144628925785,0
12.3184636927386,0
12.3224644928986,0
12.3264652930586,0
12.3304660932186,0
12.3344668933787,0
12.3384676935387,0
12.3424684936987,0
12.3464692938588,0
12.3504700940188,0
12.3544708941788,0
12.3584716943389,0
12.3624724944989,0
12.3664732946589,0
12.370474094819,0
12.374474894979,0
12.378475695139,0
12.3824764952991,0
12.3864772954591,0
12.3904780956191,0
12.3944788957792,0
12.3984796959392,0
12.4024804960992,0
12.4064812962593,0
12.4104820964193,0
12.4144828965793,0
12.4184836967394,0
12.4224844968994,0
12.4264852970594,0
12.4304860972194,0
12.4344868973795,0
12.4384876975395,0
12.4424884976995,0
12.4464892978596,0
12.4504900980196,0
12.4544908981796,0
12.4584916983397,0
12.4624924984997,0
12.4664932986597,0
12.4704940988198,0
12.4744948989798,0
12.4784956991398,0
12.4824964992999,0
12.4864972994599,0
12.4904980996199,0
12.49449889978,0
12.49849969994,0
12.5025005001,0
12.5065013002601,0
12.5105021004201,0
12.5145029005801,0
12.5185037007402,0
12.5225045009002,0
12.5265053010602,0
12.5305061012202,0
12.5345069013803,0
12.5385077015403,0
12.5425085017003,0
12.5465093018604,0
12.5505101020204,0
12.5545109021804,0
12.5585117023405,0
12.5625125025005,0
12.5665133026605,0
12.5705141028206,0
12.5745149029806,0
12.5785157031406,0
12.5825165033007,0
12.5865173034607,0
12.5905181036207,0
12.5945189037808,0
12.5985197039408,0
12.6025205041008,0
12.6065213042609,0
12.6105221044209,0
12.6145229045809,0
12.618523704741,0
12.622524504901,0
12.626525305061,0
12.630526105221,0
12.6345269053811,0
12.6385277055411,0
12.6425285057011,0
12.6465293058612,0
12.6505301060212,0
12.6545309061812,0
12.6585317063413,0
12.6625325065013,0
12.6665333066613,0
12.6705341068214,0
12.6745349069814,0
12.6785357071414,0
12.6825365073015,0
12.6865373074615,0
12.6905381076215,0
12.6945389077816,0
12.6985397079416,0
12.7025405081016,0
12.7065413082617,0
12.7105421084217,0
12.7145429085817,0
12.7185437087418,0
12.7225445089018,0
12.7265453090618,0
12.7305461092218,0
12.7345469093819,0
12.7385477095419,0
12.7425485097019,0
12.746549309862,0
12.750550110022,0
12.754550910182,0
12.7585517103421,0
12.7625525105021,0
12.7665533106621,0
12.7705541108222,0
12.7745549109822,0
12.7785557111422,0
12.7825565113023,0
12.7865573114623,0
12.7905581116223,0
12.7945589117824,0
12.7985597119424,0
12.8025605121024,0
12.8065613122625,0
12.8105621124225,0
12.8145629125825,0
12.8185637127426,0
12.8225645129026,0
12.8265653130626,0
12.8305661132226,0
12.8345669133827,0
12.8385677135427,0
12.8425685137027,0
12.8465693138628,0
12.8505701140228,0
12.8545709141828,0
12.8585717143429,0
12.8625725145029,0
12.8665733146629,0
12.870574114823,0
12.874574914983,0
12.878575715143,0
12.8825765153031,0
12.8865773154631,0
12.8905781156231,0
12.8945789157832,0
12.8985797159432,0
12.9025805161032,0
12.9065813162633,0
12.9105821164233,0
12.9145829165833,0
12.9185837167434,0
12.9225845169034,0
12.9265853170634,0
12.9305861172235,0
12.9345869173835,0
12.9385877175435,0
12.9425885177035,0
12.9465893178636,0
12.9505901180236,0
12.9545909181836,0
12.9585917183437,0
12.9625925185037,0
12.9665933186637,0
12.9705941188238,0
12.9745949189838,0
12.9785957191438,0
12.9825965193039,0
12.9865973194639,0
12.9905981196239,0
12.994598919784,0
12.998599719944,0
13.002600520104,0
13.0066013202641,0
13.0106021204241,0
13.0146029205841,0
13.0186037207442,0
13.0226045209042,0
13.0266053210642,0
13.0306061212243,0
13.0346069213843,0
13.0386077215443,0
13.0426085217043,0
13.0466093218644,0
13.0506101220244,0
13.0546109221844,0
13.0586117223445,0
13.0626125225045,0
13.0666133226645,0
13.0706141228246,0
13.0746149229846,0
13.0786157231446,0
13.0826165233047,0
13.0866173234647,0
13.0906181236247,0
13.0946189237848,0
13.0986197239448,0
13.1026205241048,0
13.1066213242649,0
13.1106221244249,0
13.1146229245849,0
13.118623724745,0
13.122624524905,0
13.126625325065,0
13.1306261252251,0
13.1346269253851,0
13.1386277255451,0
13.1426285257051,0
13.1466293258652,0
13.1506301260252,0
13.1546309261852,0
13.1586317263453,0
13.1626325265053,0
13.1666333266653,0
13.1706341268254,0
13.1746349269854,0
13.1786357271454,0
13.1826365273055,0
13.1866373274655,0
13.1906381276255,0
13.1946389277856,0
13.1986397279456,0
13.2026405281056,0
13.2066413282657,0
13.2106421284257,0
13.2146429285857,0
13.2186437287458,0
13.2226445289058,0
13.2266453290658,0
13.2306461292258,0
13.2346469293859,0
13.2386477295459,0
13.2426485297059,0
13.246649329866,0
13.250650130026,0
13.254650930186,0
13.2586517303461,0
13.2626525305061,0
13.2666533306661,0
13.2706541308262,0
13.2746549309862,0
13.2786557311462,0
13.2826565313063,0
13.2866573314663,0
13.2906581316263,0
13.2946589317864,0
13.2986597319464,0
13.3026605321064,0
13.3066613322665,0
13.3106621324265,0
13.3146629325865,0
13.3186637327466,0
13.3226645329066,0
13.3266653330666,0
13.3306661332266,0
13.3346669333867,0
13.3386677335467,0
13.3426685337067,0
13.3466693338668,0
13.3506701340268,0
13.3546709341868,0
13.3586717343469,0
13.3626725345069,0
13.3666733346669,0
13.370674134827,0
13.374674934987,0
13.378675735147,0
13.3826765353071,0
13.3866773354671,0
13.3906781356271,0
13.3946789357872,0
13.3986797359472,0
13.4026805361072,0
13.4066813362673,0
13.4106821364273,0
13.4146829365873,0
13.4186837367474,0
13.4226845369074,0
13.4266853370674,0
13.4306861372275,0
13.4346869373875,0
13.4386877375475,0
13.4426885377075,0
13.4466893378676,0
13.4506901380276,0
13.4546909381876,0
13.4586917383477,0
13.4626925385077,0
13.4666933386677,0
13.4706941388278,0
13.4746949389878,0
13.4786957391478,0
13.4826965393079,0
13.4866973394679,0
13.4906981396279,0
13.494698939788,0
13.498699739948,0
13.502700540108,0
13.5067013402681,0
13.5107021404281,0
13.5147029405881,0
13.5187037407482,0
13.5227045409082,0
13.5267053410682,0
13.5307061412283,0
13.5347069413883,0
13.5387077415483,0
13.5427085417083,0
13.5467093418684,0
13.5507101420284,0
13.5547109421884,0
13.5587117423485,0
13.5627125425085,0
13.5667133426685,0
13.5707141428286,0
13.5747149429886,140
13.5787157431486,650
13.5827165433087,652
13.5867173434687,652
13.5907181436287,652
13.5947189437888,652
13.5987197439488,651
13.6027205441088,0
13.6067213442689,392
13.6107221444289,652
13.6147229445889,651
13.618723744749,652
13.622724544909,0
13.626725345069,0
13.6307261452291,652
13.6347269453891,652
13.6387277455491,652
13.6427285457091,652
13.6467293458692,652
13.6507301460292,652
13.6547309461892,652
13.6587317463493,652
13.6627325465093,652
13.6667333466693,652
13.6707341468294,652
13.6747349469894,652
13.6787357471494,651
13.6827365473095,652
13.6867373474695,652
13.6907381476295,652
13.6947389477896,652
13.6987397479496,652
13.7027405481096,652
13.7067413482697,652
13.7107421484297,652
13.7147429485897,652
13.7187437487498,0
13.7227445489098,0
13.7267453490698,0
13.7307461492299,483
13.7347469493899,651
13.7387477495499,652
13.7427485497099,0
13.74674934987,0
13.75075015003,0
13.75475095019,652
13.7587517503501,652
13.7627525505101,651
13.7667533506701,652
13.7707541508302,652
13.7747549509902,652
13.7787557511502,651
13.7827565513103,0
13.7867573514703,0
13.7907581516303,652
13.7947589517904,652
13.7987597519504,652
13.8027605521104,652
13.8067613522705,652
13.8107621524305,652
13.8147629525905,652
13.8187637527506,652
13.8227645529106,652
13.8267653530706,565
13.8307661532307,652
13.8347669533907,652
13.8387677535507,652
13.8427685537107,349
13.8467693538708,652
13.8507701540308,652
13.8547709541908,652
13.8587717543509,0
13.8627725545109,652
13.8667733546709,652
13.870774154831,652
13.874774954991,652
13.878775755151,652
13.8827765553111,652
13.8867773554711,652
13.8907781556311,652
13.8947789557912,651
13.8987797559512,652
13.9027805561112,652
13.9067813562713,653
13.9107821564313,0
13.9147829565913,0
13.9187837567514,652
13.9227845569114,0
13.9267853570714,0
13.9307861572315,651
13.9347869573915,651
13.9387877575515,653
13.9427885577115,652
13.9467893578716,652
13.9507901580316,652
13.9547909581916,652
13.9587917583517,652
13.9627925585117,652
13.9667933586717,0
13.9707941588318,652
13.9747949589918,652
13.9787957591518,652
13.9827965593119,652
13.9867973594719,652
13.9907981596319,652
13.994798959792,653
13.998799759952,652
14.002800560112,0
14.0068013602721,652
14.0108021604321,652
14.0148029605921,0
14.0188037607522,651
14.0228045609122,652
14.0268053610722,652
14.0308061612323,652
14.0348069613923,651
14.0388077615523,651
14.0428085617123,652
14.0468093618724,652
14.0508101620324,653
14.0548109621924,652
14.0588117623525,652
14.0628125625125,652
14.0668133626725,652
14.0708141628326,651
14.0748149629926,652
14.0788157631526,652
14.0828165633127,651
14.0868173634727,652
14.0908181636327,652
14.0948189637928,652
14.0988197639528,652
14.1028205641128,652
14.1068213642729,388
14.1108221644329,0
14.1148229645929,0
14.118823764753,652
14.122824564913,652
14.126825365073,0
14.1308261652331,651
14.1348269653931,650
14.1388277655531,651
14.1428285657131,651
14.1468293658732,652
14.1508301660332,652
14.1548309661932,652
14.1588317663533,651
14.1628325665133,0
14.1668333666733,651
14.1708341668334,651
14.1748349669934,652
14.1788357671534,652
14.1828365673135,651
14.1868373674735,0
14.1908381676335,652
14.1948389677936,652
14.1988397679536,651
14.2028405681136,0
14.2068413682737,652
14.2108421684337,652
14.2148429685937,652
14.2188437687538,0
14.2228445689138,0
14.2268453690738,652
14.2308461692339,0
14.2348469693939,0
14.2388477695539,651
14.2428485697139,652
14.246849369874,652
14.250850170034,652
14.254850970194,652
14.2588517703541,650
14.2628525705141,652
14.2668533706741,651
14.2708541708342,0
14.2748549709942,652
14.2788557711542,652
14.2828565713143,61
14.2868573714743,652
14.2908581716343,651
14.2948589717944,652
14.2988597719544,651
14.3028605721144,652
14.3068613722745,651
14.3108621724345,652
14.3148629725945,0
14.3188637727546,161
14.3228645729146,652
14.3268653730746,651
14.3308661732347,652
14.3348669733947,651
14.3388677735547,652
14.3428685737147,0
14.3468693738748,0
14.3508701740348,0
14.3548709741948,0
14.3588717743549,0
14.3628725745149,622
14.3668733746749,0
14.370874174835,0
14.374874974995,652
14.378875775155,651
14.3828765753151,0
14.3868773754751,0
14.3908781756351,251
14.3948789757952,651
14.3988797759552,0
14.4028805761152,651
14.4068813762753,652
14.4108821764353,0
14.4148829765953,651
14.4188837767554,0
14.4228845769154,0
14.4268853770754,652
14.4308861772355,0
14.4348869773955,652
14.4388877775555,652
14.4428885777155,0
14.4468893778756,652
14.4508901780356,0
14.4548909781956,0
14.4588917783557,652
14.4628925785157,0
14.4668933786757,0
14.4708941788358,652
14.4748949789958,103
14.4788957791558,0
14.4828965793159,652
14.4868973794759,652
14.4908981796359,0
14.494898979796,651
14.498899779956,652
14.502900580116,0
14.5069013802761,652
14.5109021804361,651
14.5149029805961,0
14.5189037807562,652
14.5229045809162,651
14.5269053810762,0
14.5309061812363,651
14.5349069813963,651
14.5389077815563,0
14.5429085817163,653
14.5469093818764,0
14.5509101820364,0
14.5549109821964,652
14.5589117823565,652
14.5629125825165,0
14.5669133826765,652
14.5709141828366,0
14.5749149829966,0
14.5789157831566,651
14.5829165833167,651
14.5869173834767,0
14.5909181836367,0
14.5949189837968,651
14.5989197839568,0
14.6029205841168,0
14.6069213842769,0
14.6109221844369,0
14.6149229845969,0
14.618923784757,0
14.622924584917,0
14.626925385077,0
14.6309261852371,0
14.6349269853971,0
14.6389277855571,0
14.6429285857171,0
14.6469293858772,651
14.6509301860372,0
14.6549309861972,429
14.6589317863573,0
14.6629325865173,0
14.6669333866773,0
14.6709341868374,0
14.6749349869974,0
14.6789357871574,0
14.6829365873175,0
14.6869373874775,0
14.6909381876375,0
14.6949389877976,652
14.6989397879576,0
14.7029405881176,651
14.7069413882777,651
14.7109421884377,652
14.7149429885977,652
14.7189437887578,651
14.7229445889178,652
14.7269453890778,652
14.7309461892379,652
14.7349469893979,651
14.7389477895579,652
14.7429485897179,651
14.746949389878,650
14.750950190038,652
14.754950990198,651
14.7589517903581,651
14.7629525905181,0
14.7669533906781,652
14.7709541908382,652
14.7749549909982,652
14.7789557911582,0
14.7829565913183,0
14.7869573914783,0
14.7909581916383,653
14.7949589917984,651
14.7989597919584,652
14.8029605921184,0
14.8069613922785,0
14.8109621924385,652
14.8149629925985,652
14.8189637927586,0
14.8229645929186,652
14.8269653930786,373
14.8309661932387,652
14.8349669933987,651
14.8389677935587,0
14.8429685937187,0
14.8469693938788,651
14.8509701940388,651
14.8549709941988,652
14.8589717943589,652
14.8629725945189,0
14.8669733946789,651
14.870974194839,652
14.874974994999,22
14.878975795159,0
14.8829765953191,652
14.8869773954791,652
14.8909781956391,652
14.8949789957992,0
14.8989797959592,650
14.9029805961192,652
14.9069813962793,0
14.9109821964393,652
14.9149829965993,609
14.9189837967594,652
14.9229845969194,651
14.9269853970794,648
14.9309861972395,652
14.9349869973995,651
14.9389877975595,646
14.9429885977195,651
14.9469893978796,647
14.9509901980396,652
14.9549909981996,652
14.9589917983597,643
14.9629925985197,652
14.9669933986797,652
14.9709941988398,642
14.9749949989998,652
14.9789957991598,652
14.9829965993199,651
14.9869973994799,652
14.9909981996399,651
14.9949989998,652
14.99899979996,652
15.00300060012,652
15.0070014002801,652
15.0110022004401,652
15.0150030006001,652
15.0190038007602,651
15.0230046009202,651
15.0270054010802,652
15.0310062012403,652
15.0350070014003,652
15.0390078015603,652
15.0430086017203,652
15.0470094018804,652
15.0510102020404,652
15.0550110022004,652
15.0590118023605,652
15.0630126025205,652
15.0670134026805,652
15.0710142028406,651
15.0750150030006,646
15.0790158031606,652
15.0830166033207,0
15.0870174034807,0
15.0910182036407,652
15.0950190038008,651
15.0990198039608,652
15.1030206041208,652
15.1070214042809,652
15.1110222044409,652
15.1150230046009,652
15.119023804761,651
15.123024604921,652
15.127025405081,652
15.1310262052411,652
15.1350270054011,652
15.1390278055611,651
15.1430286057211,652
15.1470294058812,649
15.1510302060412,651
15.1550310062012,652
15.1590318063613,652
15.1630326065213,652
15.1670334066813,651
15.1710342068414,651
15.1750350070014,651
15.1790358071614,652
15.1830366073215,651
15.1870374074815,652
15.1910382076415,651
15.1950390078016,652
15.1990398079616,652
15.2030406081216,652
15.2070414082817,652
15.2110422084417,652
15.2150430086017,652
15.2190438087618,652
15.2230446089218,650
15.2270454090818,651
15.2310462092419,652
15.2350470094019,651
15.2390478095619,0
15.2430486097219,651
15.247049409882,652
15.251050210042,0
15.255051010202,0
15.2590518103621,652
15.2630526105221,0
15.2670534106821,0
15.2710542108422,651
15.2750550110022,652
15.2790558111622,0
15.2830566113223,652
15.2870574114823,0
15.2910582116423,0
15.2950590118024,653
15.2990598119624,652
15.3030606121224,652
15.3070614122825,652
15.3110622124425,0
15.3150630126025,652
15.3190638127626,652
15.3230646129226,652
15.3270654130826,0
15.3310662132427,0
15.3350670134027,652
15.3390678135627,652
15.3430686137227,652
15.3470694138828,652
15.3510702140428,652
15.3550710142028,0
15.3590718143629,0
15.3630726145229,0
15.3670734146829,0
15.371074214843,0
15.375075015003,0
15.379075815163,651
15.3830766153231,652
15.3870774154831,652
15.3910782156431,651
15.3950790158032,0
15.3990798159632,0
15.4030806161232,0
15.4070814162833,0
15.4110822164433,0
15.4150830166033,0
15.4190838167634,0
15.4230846169234,0
15.4270854170834,0
15.4310862172435,0
15.4350870174035,0
15.4390878175635,0
15.4430886177235,0
15.4470894178836,0
15.4510902180436,0
15.4550910182036,0
15.4590918183637,652
15.4630926185237,0
15.4670934186837,0
15.4710942188438,0
15.4750950190038,0
15.4790958191638,0
15.4830966193239,0
15.4870974194839,0
15.4910982196439,0
15.495099019804,0
15.499099819964,0
15.503100620124,0
15.5071014202841,0
15.5111022204441,0
15.5151030206041,0
15.5191038207642,0
15.5231046209242,0
15.5271054210842,0
15.5311062212443,0
15.5351070214043,0
15.5391078215643,0
15.5431086217244,0
15.5471094218844,0
15.5511102220444,0
15.5551110222044,0
15.5591118223645,0
15.5631126225245,0
15.5671134226845,0
15.5711142228446,0
15.5751150230046,0
15.5791158231646,0
15.5831166233247,0
15.5871174234847,0
15.5911182236447,0
15.5951190238048,0
15.5991198239648,0
15.6031206241248,0
15.6071214242849,0
15.6111222244449,0
15.6151230246049,0
15.619123824765,651
15.623124624925,145
15.627125425085,0
15.6311262252451,0
15.6351270254051,652
15.6391278255651,652
15.6431286257252,652
15.6471294258852,652
15.6511302260452,0
15.6551310262052,0
15.6591318263653,652
15.6631326265253,651
15.6671334266853,652
15.6711342268454,0
15.6751350270054,651
15.6791358271654,651
15.6831366273255,296
15.6871374274855,0
15.6911382276455,0
15.6951390278056,652
15.6991398279656,293
15.7031406281256,651
15.7071414282857,651
15.7111422284457,0
15.7151430286057,0
15.7191438287658,0
15.7231446289258,652
15.7271454290858,0
15.7311462292459,651
15.7351470294059,0
15.7391478295659,651
15.743148629726,652
15.747149429886,0
15.751150230046,651
15.755151030206,31
15.7591518303661,88
15.7631526305261,0
15.7671534306861,0
15.7711542308462,652
15.7751550310062,652
15.7791558311662,0
15.7831566313263,651
15.7871574314863,651
15.7911582316463,651
15.7951590318064,0
15.7991598319664,652
15.8031606321264,0
15.8071614322865,0
15.8111622324465,652
15.8151630326065,651
15.8191638327666,651
15.8231646329266,0
15.8271654330866,650
15.8311662332467,0
15.8351670334067,0
15.8391678335667,652
15.8431686337268,0
15.8471694338868,652
15.8511702340468,652
15.8551710342068,652
15.8591718343669,0
15.8631726345269,652
15.8671734346869,652
15.871174234847,651
15.875175035007,0
15.879175835167,652
15.8831766353271,652
15.8871774354871,0
15.8911782356471,0
15.8951790358072,200
15.8991798359672,651
15.9031806361272,0
15.9071814362873,0
15.9111822364473,0
15.9151830366073,0
15.9191838367674,0
15.9231846369274,652
15.9271854370874,651
15.9311862372475,0
15.9351870374075,0
15.9391878375675,0
15.9431886377275,0
15.9471894378876,0
15.9511902380476,0
15.9551910382076,0
15.9591918383677,0
15.9631926385277,651
15.9671934386877,651
15.9711942388478,652
15.9751950390078,652
15.9791958391678,0
15.9831966393279,0
15.9871974394879,0
15.9911982396479,0
15.995199039808,0
15.999199839968,0
16.003200640128,0
16.0072014402881,0
16.0112022404481,0
16.0152030406081,0
16.0192038407682,0
16.0232046409282,651
16.0272054410882,0
16.0312062412483,0
16.0352070414083,652
16.0392078415683,649
16.0432086417284,651
16.0472094418884,0
16.0512102420484,652
16.0552110422084,652
16.0592118423685,652
16.0632126425285,651
16.0672134426885,651
16.0712142428486,0
16.0752150430086,651
16.0792158431686,652
16.0832166433287,652
16.0872174434887,651
16.0912182436487,502
16.0952190438088,652
16.0992198439688,0
16.1032206441288,0
16.1072214442889,0
16.1112222444489,0
16.1152230446089,652
16.119223844769,0
16.123224644929,0
16.127225445089,0
16.1312262452491,0
16.1352270454091,651
16.1392278455691,0
16.1432286457292,0
16.1472294458892,0
16.1512302460492,0
16.1552310462092,652
16.1592318463693,650
16.1632326465293,651
16.1672334466893,0
16.1712342468494,0
16.1752350470094,0
16.1792358471694,0
16.1832366473295,0
16.1872374474895,0
16.1912382476495,0
16.1952390478096,652
16.1992398479696,0
16.2032406481296,0
16.2072414482897,0
16.2112422484497,0
16.2152430486097,651
16.2192438487698,0
16.2232446489298,0
16.2272454490898,0
16.2312462492499,651
16.2352470494099,55
16.2392478495699,652
16.24324864973,652
16.24724944989,652
16.25125025005,652
16.25525105021,0
16.2592518503701,0
16.2632526505301,652
16.2672534506901,0
16.2712542508502,652
16.2752550510102,652
16.2792558511702,0
16.2832566513303,0
16.2872574514903,651
16.2912582516503,0
16.2952590518104,0
16.2992598519704,652
16.3032606521304,0
16.3072614522905,0
16.3112622524505,652
16.3152630526105,0
16.3192638527706,0
16.3232646529306,651
16.3272654530906,651
16.3312662532507,652
16.3352670534107,0
16.3392678535707,0
16.3432686537308,652
16.3472694538908,652
16.3512702540508,0
16.3552710542108,0
16.3592718543709,652
16.3632726545309,651
16.3672734546909,0
16.371274254851,0
16.375275055011,0
16.379275855171,652
16.3832766553311,0
16.3872774554911,0
16.3912782556511,652
16.3952790558112,0
16.3992798559712,0
16.4032806561312,652
16.4072814562913,651
16.4112822564513,0
16.4152830566113,652
16.4192838567714,0
16.4232846569314,651
16.4272854570914,0
16.4312862572515,595
16.4352870574115,651
16.4392878575715,225
16.4432886577316,0
16.4472894578916,651
16.4512902580516,652
16.4552910582116,0
16.4592918583717,652
16.4632926585317,651
16.4672934586917,653
16.4712942588518,0
16.4752950590118,652
16.4792958591718,651
16.4832966593319,651
16.4872974594919,0
16.4912982596519,652
16.495299059812,652
16.499299859972,651
16.503300660132,0
16.5073014602921,0
16.5113022604521,0
16.5153030606121,0
16.5193038607722,0
16.5233046609322,0
16.5273054610922,652
16.5313062612523,0
16.5353070614123,0
16.5393078615723,0
16.5433086617324,364
16.5473094618924,0
16.5513102620524,0
16.5553110622124,0
16.5593118623725,198
16.5633126625325,0
16.5673134626925,0
16.5713142628526,651
16.5753150630126,0
16.5793158631726,0
16.5833166633327,651
16.5873174634927,652
16.5913182636527,0
16.5953190638128,652
16.5993198639728,0
16.6033206641328,651
16.6073214642929,651
16.6113222644529,0
16.6153230646129,0
16.619323864773,0
16.623324664933,652
16.627325465093,651
16.6313262652531,652
16.6353270654131,652
16.6393278655731,652
16.6433286657332,0
16.6473294658932,0
16.6513302660532,0
16.6553310662132,652
16.6593318663733,0
16.6633326665333,652
16.6673334666933,651
16.6713342668534,0
16.6753350670134,652
16.6793358671734,652
16.6833366673335,0
16.6873374674935,651
16.6913382676535,0
16.6953390678136,0
16.6993398679736,0
16.7033406681336,0
16.7073414682937,0
16.7113422684537,0
16.7153430686137,652
16.7193438687738,651
16.7233446689338,0
16.7273454690938,0
16.7313462692539,651
16.7353470694139,0
16.7393478695739,0
16.743348669734,652
16.747349469894,651
16.751350270054,652
16.755351070214,652
16.7593518703741,651
16.7633526705341,651
16.7673534706941,652
16.7713542708542,651
16.7753550710142,536
16.7793558711742,652
16.7833566713343,651
16.7873574714943,651
16.7913582716543,652
16.7953590718144,652
16.7993598719744,652
16.8033606721344,648
16.8073614722945,652
16.8113622724545,0
16.8153630726145,651
16.8193638727746,651
16.8233646729346,652
16.8273654730946,651
16.8313662732547,651
16.8353670734147,652
16.8393678735747,0
16.8433686737348,652
16.8473694738948,651
16.8513702740548,653
16.8553710742148,651
16.8593718743749,652
16.8633726745349,652
16.8673734746949,0
16.871374274855,0
16.875375075015,652
16.879375875175,652
16.8833766753351,652
16.8873774754951,0
16.8913782756551,652
16.8953790758152,652
16.8993798759752,652
16.9033806761352,652
16.9073814762953,652
16.9113822764553,652
16.9153830766153,0
16.9193838767754,652
16.9233846769354,651
16.9273854770954,652
16.9313862772555,652
16.9353870774155,652
16.9393878775755,390
16.9433886777356,652
16.9473894778956,0
16.9513902780556,0
16.9553910782156,652
16.9593918783757,651
16.9633926785357,652
16.9673934786957,652
16.9713942788558,652
16.9753950790158,649
16.9793958791758,0
16.9833966793359,652
16.9873974794959,652
16.9913982796559,652
16.995399079816,530
16.999399879976,652
17.003400680136,651
17.0074014802961,652
17.0114022804561,652
17.0154030806161,0
17.0194038807762,651
17.0234046809362,652
17.0274054810962,652
17.0314062812563,649
17.0354070814163,652
17.0394078815763,651
17.0434086817364,652
17.0474094818964,652
17.0514102820564,651
17.0554110822164,650
17.0594118823765,652
17.0634126825365,652
17.0674134826965,652
17.0714142828566,652
17.0754150830166,652
17.0794158831766,652
17.0834166833367,652
17.0874174834967,652
17.0914182836567,651
17.0954190838168,462
17.0994198839768,652
17.1034206841368,651
17.1074214842969,652
17.1114222844569,120
17.1154230846169,652
17.119423884777,651
17.123424684937,388
17.127425485097,652
17.1314262852571,652
17.1354270854171,651
17.1394278855771,469
17.1434286857372,652
17.1474294858972,651
17.1514302860572,652
17.1554310862172,651
17.1594318863773,651
17.1634326865373,652
17.1674334866973,651
17.1714342868574,652
17.1754350870174,652
17.1794358871774,652
17.1834366873375,621
17.1874374874975,652
17.1914382876575,652
17.1954390878176,652
17.1994398879776,0
17.2034406881376,97
17.2074414882977,652
17.2114422884577,596
17.2154430886177,624
17.2194438887778,0
17.2234446889378,652
17.2274454890978,652
17.2314462892579,649
17.2354470894179,652
17.2394478895779,652
17.243448689738,651
17.247449489898,651
17.251450290058,615
17.2554510902181,652
17.2594518903781,652
17.2634526905381,650
17.2674534906981,652
17.2714542908582,651
17.2754550910182,652
17.2794558911782,640
17.2834566913383,651
17.2874574914983,652
17.2914582916583,652
17.2954590918184,652
17.2994598919784,652
17.3034606921384,652
17.3074614922985,652
17.3114622924585,652
17.3154630926185,652
17.3194638927786,652
17.3234646929386,652
17.3274654930986,652
17.3314662932587,652
17.3354670934187,651
17.3394678935787,650
17.3434686937388,652
17.3474694938988,652
17.3514702940588,651
17.3554710942188,651
17.3594718943789,652
17.3634726945389,652
17.3674734946989,652
17.371474294859,652
17.375475095019,652
17.379475895179,652
17.3834766953391,652
17.3874774954991,652
17.3914782956591,651
17.3954790958192,652
17.3994798959792,652
17.4034806961392,652
17.4074814962993,651
17.4114822964593,652
17.4154830966193,651
17.4194838967794,652
17.4234846969394,652
17.4274854970994,651
17.4314862972595,652
17.4354870974195,652
17.4394878975795,652
17.4434886977396,651
17.4474894978996,652
17.4514902980596,651
17.4554910982196,652
17.4594918983797,652
17.4634926985397,652
17.4674934986997,652
17.4714942988598,652
17.4754950990198,652
17.4794958991798,652
17.4834966993399,652
17.4874974994999,652
17.4914982996599,651
17.49549909982,0
17.49949989998,0
17.50350070014,0
17.5075015003001,0
17.5115023004601,0
17.5155031006201,0
17.5195039007802,0
17.5235047009402,0
17.5275055011002,0
17.5315063012603,0
17.5355071014203,0
17.5395079015803,0
17.5435087017404,0
17.5475095019004,0
17.5515103020604,0
17.5555111022204,0
17.5595119023805,0
17.5635127025405,0
17.5675135027005,0
17.5715143028606,0
17.5755151030206,0
17.5795159031806,0
17.5835167033407,0
17.5875175035007,0
17.5915183036607,0
17.5955191038208,0
17.5995199039808,0
17.6035207041408,0
17.6075215043009,0
17.6115223044609,0
17.6155231046209,0
17.619523904781,0
17.623524704941,0
17.627525505101,0
17.6315263052611,0
17.6355271054211,0
17.6395279055811,0
17.6435287057412,214
17.6475295059012,0
17.6515303060612,0
17.6555311062212,649
17.6595319063813,0
17.6635327065413,0
17.6675335067013,386
17.6715343068614,0
17.6755351070214,0
17.6795359071814,0
17.6835367073415,0
17.6875375075015,0
17.6915383076615,0
17.6955391078216,651
17.6995399079816,0
17.7035407081416,0
17.7075415083017,652
17.7115423084617,0
17.7155431086217,0
17.7195439087818,0
17.7235447089418,0
17.7275455091018,0
17.7315463092619,0
17.7355471094219,0
17.7395479095819,0
17.743548709742,0
17.747549509902,0
17.751550310062,0
17.755551110222,0
17.7595519103821,0
17.7635527105421,0
17.7675535107021,0
17.7715543108622,0
17.7755551110222,0
17.7795559111822,0
17.7835567113423,0
17.7875575115023,0
17.7915583116623,0
17.7955591118224,0
17.7995599119824,652
17.8035607121424,0
17.8075615123025,0
17.8115623124625,0
17.8155631126225,0
17.8195639127826,0
17.8235647129426,0
17.8275655131026,0
17.8315663132627,0
17.8355671134227,0
17.8395679135827,0
17.8435687137428,0
17.8475695139028,0
17.8515703140628,0
17.8555711142228,0
17.8595719143829,0
17.8635727145429,0
17.8675735147029,0
17.871574314863,0
17.875575115023,0
17.879575915183,0
17.8835767153431,0
17.8875775155031,0
17.8915783156631,0
17.8955791158232,0
17.8995799159832,0
17.9035807161432,0
17.9075815163033,0
17.9115823164633,0
17.9155831166233,0
17.9195839167834,0
17.9235847169434,0
17.9275855171034,0
17.9315863172635,0
17.9355871174235,0
17.9395879175835,0
17.9435887177436,0
17.9475895179036,0
17.9515903180636,0
17.9555911182236,0
17.9595919183837,0
17.9635927185437,0
17.9675935187037,652
17.9715943188638,652
17.9755951190238,651
17.9795959191838,0
17.9835967193439,651
17.9875975195039,0
17.9915983196639,0
17.995599119824,652
17.999599919984,652
18.003600720144,651
18.0076015203041,652
18.0116023204641,651
18.0156031206241,0
18.0196039207842,650
18.0236047209442,651
18.0276055211042,0
18.0316063212643,0
18.0356071214243,0
18.0396079215843,0
18.0436087217444,651
18.0476095219044,652
18.0516103220644,446
18.0556111222244,0
18.0596119223845,651
18.0636127225445,651
18.0676135227045,651
18.0716143228646,651
18.0756151230246,651
18.0796159231846,653
18.0836167233447,0
18.0876175235047,0
18.0916183236647,0
18.0956191238248,651
18.0996199239848,649
18.1036207241448,467
18.1076215243049,651
18.1116223244649,652
18.1156231246249,651
18.119623924785,0
18.123624724945,0
18.127625525105,651
18.1316263252651,651
18.1356271254251,650
18.1396279255851,652
18.1436287257452,651
18.1476295259052,652
18.1516303260652,651
18.1556311262252,651
18.1596319263853,652
18.1636327265453,652
18.1676335267053,651
18.1716343268654,652
18.1756351270254,651
18.1796359271854,0
18.1836367273455,651
18.1876375275055,652
18.1916383276655,623
18.1956391278256,0
18.1996399279856,0
18.2036407281456,0
18.2076415283057,651
18.2116423284657,651
18.2156431286257,0
18.2196439287858,0
18.2236447289458,0
18.2276455291058,652
18.2316463292659,0
18.2356471294259,651
18.2396479295859,651
18.243648729746,651
18.247649529906,0
18.251650330066,650
18.2556511302261,651
18.2596519303861,651
18.2636527305461,651
18.2676535307061,649
18.2716543308662,651
18.2756551310262,650
18.2796559311862,652
18.2836567313463,649
18.2876575315063,650
18.2916583316663,651
18.2956591318264,649
18.2996599319864,652
18.3036607321464,651
18.3076615323065,650
18.3116623324665,404
18.3156631326265,647
18.3196639327866,651
18.3236647329466,0
18.3276655331066,0
18.3316663332667,648
18.3356671334267,651
18.3396679335867,649
18.3436687337468,0
18.3476695339068,651
18.3516703340668,652
18.3556711342269,650
18.3596719343869,649
18.3636727345469,651
18.3676735347069,649
18.371674334867,650
18.375675135027,650
18.379675935187,649
18.3836767353471,0
18.3876775355071,650
18.3916783356671,651
18.3956791358272,649
18.3996799359872,651
18.4036807361472,651
18.4076815363073,650
18.4116823364673,650
18.4156831366273,0
18.4196839367874,650
18.4236847369474,632
18.4276855371074,651
18.4316863372675,650
18.4356871374275,649
18.4396879375875,647
18.4436887377476,650
18.4476895379076,622
18.4516903380676,0
18.4556911382277,463
18.4596919383877,651
18.4636927385477,646
18.4676935387077,0
18.4716943388678,650
18.4756951390278,651
18.4796959391878,645
18.4836967393479,648
18.4876975395079,649
18.4916983396679,650
18.495699139828,0
18.499699939988,0
18.503700740148,0
18.5077015403081,648
18.5117023404681,0
18.5157031406281,511
18.5197039407882,652
18.5237047409482,0
18.5277055411082,554
18.5317063412683,649
18.5357071414283,446
18.5397079415883,0
18.5437087417484,617
18.5477095419084,650
18.5517103420684,563
18.5557111422285,645
18.5597119423885,536
18.5637127425485,0
18.5677135427085,367
18.5717143428686,571
18.5757151430286,229
18.5797159431886,619
18.5837167433487,651
18.5877175435087,592
18.5917183436687,645
18.5957191438288,202
18.5997199439888,0
18.6037207441488,651
18.6077215443089,606
18.6117223444689,611
18.6157231446289,513
18.619723944789,0
18.623724744949,585
18.627725545109,410
18.6317263452691,636
18.6357271454291,646
18.6397279455891,356
18.6437287457492,650
18.6477295459092,628
18.6517303460692,648
18.6557311462293,652
18.6597319463893,648
18.6637327465493,649
18.6677335467093,387
18.6717343468694,648
18.6757351470294,650
18.6797359471894,441
18.6837367473495,649
18.6877375475095,648
18.6917383476695,609
18.6957391478296,250
18.6997399479896,583
18.7037407481496,651
18.7077415483097,447
18.7117423484697,598
18.7157431486297,529
18.7197439487898,490
18.7237447489498,0
18.7277455491098,651
18.7317463492699,558
18.7357471494299,611
18.7397479495899,0
18.74374874975,650
18.74774954991,583
18.75175035007,0
18.7557511502301,643
18.7597519503901,524
18.7637527505501,647
18.7677535507101,0
18.7717543508702,0
18.7757551510302,616
18.7797559511902,649
18.7837567513503,0
18.7877575515103,648
18.7917583516703,339
18.7957591518304,569
18.7997599519904,414
18.8037607521504,579
18.8077615523105,647
18.8117623524705,307
18.8157631526305,648
18.8197639527906,335
18.8237647529506,550
18.8277655531106,649
18.8317663532707,384
18.8357671534307,571
18.8397679535907,474
18.8437687537508,649
18.8477695539108,335
18.8517703540708,648
18.8557711542309,509
18.8597719543909,636
18.8637727545509,403
18.8677735547109,620
18.871774354871,290
18.875775155031,608
18.879775955191,650
18.8837767553511,397
18.8877775555111,557
18.8917783556711,354
18.8957791558312,620
18.8997799559912,643
18.9037807561512,260
18.9077815563113,0
18.9117823564713,369
18.9157831566313,588
18.9197839567914,463
18.9237847569514,0
18.9277855571114,560
18.9317863572715,0
18.9357871574315,0
18.9397879575915,265
18.9437887577516,647
18.9477895579116,581
18.9517903580716,0
18.9557911582317,233
18.9597919583917,651
18.9637927585517,492
18.9677935587117,0
18.9717943588718,474
18.9757951590318,647
18.9797959591918,0
18.9837967593519,358
18.9877975595119,623
18.9917983596719,255
18.995799159832,0
18.999799959992,313
19.003800760152,603
19.0078015603121,537
19.0118023604721,648
19.0158031606321,0
19.0198039607922,525
19.0238047609522,0
19.0278055611122,651
19.0318063612723,638
19.0358071614323,407
19.0398079615923,0
19.0438087617524,631
19.0478095619124,0
19.0518103620724,0
19.0558111622325,648
19.0598119623925,604
19.0638127625525,640
19.0678135627125,507
19.0718143628726,623
19.0758151630326,0
19.0798159631926,0
19.0838167633527,154
19.0878175635127,538
19.0918183636727,0
19.0958191638328,0
19.0998199639928,0
19.1038207641528,445
19.1078215643129,0
19.1118223644729,0
19.1158231646329,430
19.119823964793,0
19.123824764953,80
19.127825565113,0
19.1318263652731,646
19.1358271654331,262
19.1398279655931,0
19.1438287657532,0
19.1478295659132,315
19.1518303660732,0
19.1558311662332,0
19.1598319663933,0
19.1638327665533,417
19.1678335667133,503
19.1718343668734,0
19.1758351670334,0
19.1798359671934,645
19.1838367673535,0
19.1878375675135,0
19.1918383676735,0
19.1958391678336,510
19.1998399679936,645
19.2038407681536,175
19.2078415683137,309
19.2118423684737,0
19.2158431686337,624
19.2198439687938,427
19.2238447689538,0
19.2278455691138,0
19.2318463692739,602
19.2358471694339,649
19.2398479695939,84
19.243848769754,433
19.247849569914,647
19.251850370074,0
19.2558511702341,0
19.2598519703941,0
19.2638527705541,443
19.2678535707141,146
19.2718543708742,0
19.2758551710342,239
19.2798559711942,622
19.2838567713543,0
19.2878575715143,518
19.2918583716743,598
19.2958591718344,0
19.2998599719944,0
19.3038607721544,0
19.3078615723145,514
19.3118623724745,0
19.3158631726345,0
19.3198639727946,0
19.3238647729546,0
19.3278655731146,0
19.3318663732747,0
19.3358671734347,0
19.3398679735947,0
19.3438687737548,0
19.3478695739148,0
19.3518703740748,0
19.3558711742349,212
19.3598719743949,382
19.3638727745549,592
19.3678735747149,481
19.371874374875,316
19.375875175035,482
19.379875975195,387
19.3838767753551,529
19.3878775755151,649
19.3918783756751,348
19.3958791758352,605
19.3998799759952,273
19.4038807761552,528
19.4078815763153,645
19.4118823764753,285
19.4158831766353,537
19.4198839767954,650
19.4238847769554,323
19.4278855771154,628
19.4318863772755,388
19.4358871774355,536
19.4398879775955,426
19.4438887777556,559
19.4478895779156,415
19.4518903780756,447
19.4558911782357,117
19.4598919783957,569
19.4638927785557,349
19.4678935787157,563
19.4718943788758,202
19.4758951790358,501
19.4798959791958,648
19.4838967793559,350
19.4878975795159,607
19.4918983796759,435
19.495899179836,562
19.499899979996,621
19.503900780156,166
19.5079015803161,395
19.5119023804761,258
19.5159031806361,493
19.5199039807962,649
19.5239047809562,356
19.5279055811162,451
19.5319063812763,278
19.5359071814363,649
19.5399079815963,650
19.5439087817564,560
19.5479095819164,650
19.5519103820764,650
19.5559111822365,529
19.5599119823965,652
19.5639127825565,648
19.5679135827165,650
19.5719143828766,650
19.5759151830366,651
19.5799159831966,648
19.5839167833567,651
19.5879175835167,649
19.5919183836767,651
19.5959191838368,634
19.5999199839968,648
19.6039207841568,636
19.6079215843169,631
19.6119223844769,648
19.6159231846369,651
19.619923984797,641
19.623924784957,651
19.627925585117,644
19.6319263852771,650
19.6359271854371,648
19.6399279855971,650
19.6439287857572,644
19.6479295859172,649
19.6519303860772,652
19.6559311862373,647
19.6599319863973,650
19.6639327865573,633
19.6679335867173,648
19.6719343868774,650
19.6759351870374,591
19.6799359871974,649
19.6839367873575,640
19.6879375875175,650
19.6919383876775,651
19.6959391878376,637
19.6999399879976,649
19.7039407881576,594
19.7079415883177,649
19.7119423884777,652
19.7159431886377,629
19.7199439887978,646
19.7239447889578,585
19.7279455891178,650
19.7319463892779,649
19.7359471894379,650
19.7399479895979,585
19.743948789758,645
19.747949589918,630
19.751950390078,650
19.7559511902381,557
19.7599519903981,635
19.7639527905581,651
19.7679535907181,568
19.7719543908782,646
19.7759551910382,590
19.7799559911982,647
19.7839567913583,651
19.7879575915183,596
19.7919583916783,647
19.7959591918384,480
19.7999599919984,648
19.8039607921584,650
19.8079615923185,611
19.8119623924785,626
19.8159631926385,534
19.8199639927986,649
19.8239647929586,650
19.8279655931186,537
19.8319663932787,648
19.8359671934387,546
19.8399679935987,648
19.8439687937588,651
19.8479695939188,610
19.8519703940788,647
19.8559711942389,526
19.8599719943989,626
19.8639727945589,651
19.8679735947189,562
19.871974394879,648
19.875975195039,442
19.879975995199,589
19.8839767953591,650
19.8879775955191,609
19.8919783956791,650
19.8959791958392,419
19.8999799959992,630
19.9039807961592,651
19.9079815963193,541
19.9119823964793,636
19.9159831966393,486
19.9199839967994,648
19.9239847969594,651
19.9279855971194,595
19.9319863972795,633
19.9359871974395,651
19.9399879975995,586
19.9439887977596,619
19.9479895979196,401
19.9519903980796,633
19.9559911982397,530
19.9599919983997,611
19.9639927985597,651
19.9679935987197,594
19.9719943988798,647
19.9759951990398,637
19.9799959991998,651
19.9839967993599,643
19.9879975995199,546
19.9919983996799,401
19.99599919984,649
20,465
